,emg
0,-54551
1,-53044
2,-50441
3,-46971
4,-43932
5,-43266
6,-45014
7,-48722
8,-51745
9,-54449
10,-54752
11,-53297
12,-50893
13,-47498
14,-44872
15,-44227
16,-45440
17,-48083
18,-51728
19,-54291
20,-54685
21,-53316
22,-50570
23,-47009
24,-44755
25,-44434
26,-45936
27,-48763
28,-52235
29,-54160
30,-54901
31,-53996
32,-50932
33,-47611
34,-45532
35,-45093
36,-46069
37,-48816
38,-52566
39,-54642
40,-54837
41,-53925
42,-51006
43,-47389
44,-45001
45,-44700
46,-46153
47,-48744
48,-51734
49,-54593
50,-55262
51,-53563
52,-51422
53,-48431
54,-45611
55,-44867
56,-46177
57,-49241
58,-52669
59,-54982
60,-55526
61,-54576
62,-52114
63,-48707
64,-46133
65,-45665
66,-47029
67,-49867
68,-53218
69,-55646
70,-56053
71,-54779
72,-52205
73,-48817
74,-46282
75,-45631
76,-46655
77,-49167
78,-52689
79,-55297
80,-55876
81,-54952
82,-52209
83,-48484
84,-46007
85,-45736
86,-47211
87,-49639
88,-52641
89,-54939
90,-55479
91,-54327
92,-51477
93,-48012
94,-45566
95,-45094
96,-46576
97,-49177
98,-52339
99,-54546
100,-55252
101,-53927
102,-51254
103,-47862
104,-45257
105,-44691
106,-45907
107,-48741
108,-51971
109,-54287
110,-54788
111,-53499
112,-50777
113,-47416
114,-44999
115,-44349
116,-45471
117,-48220
118,-51754
119,-54101
120,-54309
121,-52827
122,-50397
123,-47379
124,-44837
125,-44164
126,-45372
127,-47907
128,-51376
129,-53763
130,-54334
131,-53461
132,-50842
133,-47467
134,-44898
135,-43914
136,-44765
137,-47235
138,-50497
139,-53236
140,-54488
141,-54174
142,-51127
143,-47008
144,-45469
145,-45754
146,-45997
147,-47435
148,-50618
149,-53316
150,-55934
151,-55752
152,-52374
153,-49192
154,-47667
155,-49832
156,-51909
157,-54518
158,-55302
159,-52741
160,-53056
161,-56852
162,-52789
163,-43317
164,-44318
165,-46754
166,-48346
167,-49177
168,-47317
169,-46184
170,-48569
171,-49577
172,-46973
173,-46450
174,-49626
175,-50838
176,-48348
177,-52408
178,-60027
179,-61949
180,-58543
181,-54890
182,-52666
183,-46104
184,-41702
185,-43466
186,-48742
187,-54152
188,-56493
189,-56586
190,-56950
191,-55727
192,-52969
193,-50282
194,-48882
195,-47710
196,-46926
197,-50240
198,-52464
199,-52427
200,-53676
201,-54212
202,-53171
203,-51547
204,-49817
205,-49756
206,-50889
207,-52741
208,-56616
209,-59952
210,-59578
211,-58612
212,-56326
213,-52546
214,-50191
215,-50911
216,-52165
217,-53120
218,-55814
219,-61237
220,-71400
221,-71354
222,-58364
223,-54947
224,-52746
225,-47222
226,-47981
227,-52841
228,-56506
229,-27467
230,-1792
231,-18847
232,-56020
233,-52954
234,-50135
235,-47425
236,-46867
237,-50624
238,-54215
239,-22596
240,-1333
241,-19284
242,-55708
243,-51729
244,-49432
245,-48954
246,-49074
247,-49009
248,-51608
249,-25618
250,-1682
251,-18854
252,-53681
253,-50736
254,-47589
255,-47362
256,-49759
257,-51692
258,-56799
259,-33778
260,-2619
261,-22631
262,-57436
263,-50043
264,-45974
265,-45795
266,-46426
267,-48462
268,-53476
269,-39044
270,-4484
271,-20588
272,-57041
273,-53027
274,-50343
275,-49712
276,-51046
277,-54193
278,-58052
279,-38947
280,-3984
281,-21882
282,-58523
283,-54421
284,-51771
285,-50534
286,-51732
287,-55519
288,-59682
289,-45780
290,-6104
291,-21870
292,-56192
293,-52116
294,-51836
295,-53926
296,-54227
297,-55049
298,-58702
299,-52709
300,-10955
301,-26217
302,-59014
303,-53067
304,-51903
305,-51962
306,-51354
307,-52937
308,-56371
309,-54429
310,-15619
311,-31854
312,-62103
313,-55134
314,-53343
315,-52402
316,-53092
317,-54917
318,-56542
319,-54976
320,-19957
321,-34311
322,-58113
323,-51419
324,-49838
325,-50055
326,-51566
327,-53984
328,-57661
329,-63270
330,-44872
331,-56269
332,-61421
333,-52938
334,-49479
335,-48693
336,-49547
337,-51522
338,-55689
339,-61481
340,-71394
341,-71075
342,-58246
343,-53154
344,-50484
345,-49707
346,-50759
347,-53301
348,-57549
349,-58382
350,-59309
351,-60564
352,-59676
353,-54699
354,-48886
355,-45437
356,-47653
357,-52574
358,-57302
359,-60092
360,-60284
361,-59136
362,-56339
363,-53479
364,-50642
365,-48502
366,-49723
367,-52749
368,-58296
369,-60126
370,-58384
371,-56737
372,-55155
373,-53079
374,-53032
375,-52554
376,-51146
377,-51744
378,-55046
379,-57788
380,-58982
381,-59430
382,-56528
383,-53598
384,-50365
385,-48944
386,-50496
387,-54151
388,-58360
389,-62658
390,-64586
391,-62067
392,-56771
393,-51311
394,-47167
395,-45426
396,-46323
397,-49822
398,-53615
399,-58227
400,-60068
401,-57824
402,-55354
403,-51805
404,-48875
405,-47426
406,-48964
407,-52505
408,-56300
409,-59045
410,-60652
411,-59602
412,-57063
413,-53502
414,-48144
415,-46636
416,-48922
417,-48962
418,-53491
419,-59165
420,-60492
421,-57549
422,-54742
423,-50635
424,-47699
425,-48949
426,-50328
427,-53461
428,-56472
429,-58879
430,-59767
431,-58921
432,-55457
433,-51016
434,-47571
435,-46305
436,-46876
437,-52017
438,-57328
439,-57508
440,-58879
441,-58217
442,-55376
443,-51869
444,-49126
445,-48481
446,-50239
447,-53031
448,-57102
449,-61319
450,-63678
451,-62499
452,-58621
453,-53529
454,-47978
455,-45907
456,-50466
457,-54630
458,-55457
459,-57270
460,-59376
461,-59489
462,-55967
463,-53164
464,-52096
465,-50664
466,-51016
467,-54238
468,-57713
469,-60084
470,-61001
471,-60329
472,-58265
473,-54888
474,-51321
475,-51687
476,-53014
477,-54920
478,-58735
479,-62087
480,-62884
481,-59889
482,-55443
483,-52433
484,-50498
485,-49745
486,-52267
487,-56879
488,-57809
489,-58287
490,-59222
491,-59089
492,-57160
493,-53904
494,-51329
495,-50726
496,-51729
497,-52574
498,-54946
499,-57240
500,-57998
501,-57486
502,-55677
503,-51596
504,-48139
505,-48814
506,-49467
507,-52179
508,-55489
509,-57907
510,-59024
511,-57324
512,-53698
513,-49832
514,-46944
515,-45776
516,-48741
517,-53201
518,-55078
519,-57606
520,-58144
521,-56819
522,-54104
523,-50517
524,-47801
525,-47119
526,-48033
527,-50653
528,-54185
529,-56782
530,-56994
531,-55808
532,-53071
533,-49404
534,-46479
535,-46364
536,-47770
537,-50152
538,-53564
539,-56305
540,-56936
541,-55550
542,-53076
543,-49451
544,-46731
545,-46476
546,-47672
547,-50419
548,-53780
549,-55735
550,-56323
551,-54826
552,-51763
553,-48405
554,-46527
555,-45766
556,-47024
557,-49903
558,-53599
559,-56051
560,-56597
561,-55404
562,-52811
563,-49374
564,-46839
565,-46252
566,-47323
567,-49915
568,-53288
569,-56073
570,-56649
571,-54921
572,-51892
573,-48540
574,-46049
575,-45269
576,-46316
577,-49140
578,-53033
579,-55723
580,-56079
581,-54706
582,-51875
583,-48566
584,-45897
585,-45206
586,-46245
587,-48504
588,-51948
589,-54669
590,-55496
591,-53832
592,-50979
593,-47824
594,-45052
595,-44616
596,-46338
597,-49208
598,-52882
599,-55304
600,-55713
601,-54084
602,-51475
603,-48304
604,-46034
605,-45334
606,-46471
607,-49467
608,-52750
609,-55032
610,-55806
611,-54461
612,-51669
613,-48551
614,-46534
615,-45927
616,-47229
617,-49961
618,-53068
619,-55425
620,-55983
621,-54947
622,-52171
623,-48853
624,-46791
625,-46569
626,-47481
627,-49724
628,-53266
629,-56589
630,-57096
631,-55592
632,-52436
633,-49219
634,-47324
635,-46796
636,-48516
637,-51022
638,-53988
639,-56670
640,-57555
641,-55848
642,-52712
643,-49148
644,-47538
645,-47477
646,-48103
647,-50762
648,-54187
649,-56601
650,-56966
651,-55602
652,-52751
653,-49301
654,-46804
655,-46302
656,-48083
657,-51508
658,-54734
659,-56504
660,-56931
661,-55796
662,-52937
663,-49574
664,-47324
665,-46526
666,-47565
667,-50121
668,-53851
669,-56717
670,-57272
671,-55810
672,-52658
673,-49089
674,-47322
675,-47184
676,-48241
677,-50824
678,-54486
679,-56986
680,-57373
681,-56025
682,-52991
683,-49577
684,-47562
685,-47177
686,-48452
687,-51228
688,-54269
689,-56731
690,-57884
691,-56990
692,-53837
693,-50699
694,-48181
695,-47527
696,-49036
697,-51715
698,-54989
699,-57347
700,-57708
701,-56355
702,-53625
703,-50275
704,-47884
705,-47203
706,-48494
707,-51281
708,-54710
709,-57386
710,-57986
711,-56274
712,-53269
713,-49864
714,-47717
715,-47133
716,-48332
717,-51030
718,-54082
719,-56099
720,-56647
721,-55487
722,-53062
723,-49851
724,-47172
725,-46230
726,-47383
727,-50605
728,-53841
729,-55853
730,-56165
731,-54871
732,-51992
733,-48512
734,-46230
735,-45848
736,-46879
737,-49834
738,-53130
739,-55160
740,-55822
741,-54474
742,-51740
743,-48449
744,-46074
745,-45714
746,-46762
747,-49314
748,-52567
749,-54729
750,-55174
751,-53636
752,-51134
753,-48645
754,-46107
755,-45417
756,-46612
757,-49366
758,-52644
759,-55007
760,-55414
761,-54076
762,-51441
763,-48236
764,-45687
765,-45096
766,-46442
767,-49037
768,-52359
769,-54679
770,-54896
771,-53413
772,-50761
773,-47193
774,-44981
775,-44704
776,-45921
777,-48733
778,-52469
779,-54627
780,-55010
781,-53281
782,-50764
783,-47271
784,-44803
785,-44308
786,-45390
787,-48092
788,-51378
789,-53656
790,-54144
791,-52776
792,-50025
793,-46804
794,-44505
795,-44001
796,-45256
797,-47944
798,-51260
799,-53687
800,-54282
801,-52995
802,-50317
803,-47042
804,-44676
805,-44229
806,-45376
807,-47601
808,-50579
809,-53202
810,-53784
811,-52557
812,-50332
813,-47132
814,-45246
815,-44277
816,-44559
817,-47342
818,-51278
819,-54307
820,-54979
821,-54194
822,-51202
823,-47833
824,-45291
825,-44630
826,-45955
827,-48812
828,-52171
829,-54554
830,-55096
831,-53831
832,-51203
833,-47944
834,-45666
835,-45213
836,-46443
837,-49160
838,-52436
839,-54789
840,-55321
841,-54025
842,-51127
843,-47779
844,-45618
845,-45521
846,-46877
847,-49187
848,-51834
849,-53807
850,-54987
851,-54606
852,-52242
853,-48217
854,-45175
855,-44897
856,-46453
857,-49511
858,-52494
859,-54544
860,-55235
861,-54292
862,-51481
863,-48211
864,-46044
865,-45774
866,-47200
867,-49771
868,-53045
869,-55350
870,-56090
871,-54881
872,-52254
873,-49026
874,-46542
875,-46166
876,-47529
877,-50246
878,-53549
879,-55867
880,-56337
881,-55211
882,-52351
883,-48657
884,-46687
885,-46871
886,-47834
887,-50672
888,-54339
889,-56110
890,-56476
891,-55144
892,-52762
893,-49679
894,-47337
895,-46618
896,-47728
897,-50926
898,-54214
899,-56471
900,-57112
901,-55687
902,-53001
903,-49622
904,-47361
905,-46604
906,-47637
907,-50545
908,-54148
909,-55936
910,-56285
911,-55380
912,-52587
913,-49008
914,-46948
915,-46592
916,-47963
917,-49995
918,-52924
919,-55894
920,-56759
921,-54949
922,-52541
923,-49477
924,-47345
925,-46282
926,-47299
927,-50276
928,-53482
929,-55359
930,-55625
931,-55036
932,-52645
933,-48994
934,-46703
935,-46179
936,-47478
937,-49817
938,-52966
939,-55704
940,-56083
941,-54759
942,-51899
943,-48509
944,-46368
945,-46006
946,-47320
947,-49976
948,-53246
949,-55499
950,-55726
951,-54136
952,-51446
953,-48326
954,-46471
955,-46011
956,-47156
957,-49719
958,-52826
959,-55016
960,-55421
961,-53999
962,-51272
963,-47882
964,-45511
965,-45837
966,-47226
967,-49677
968,-52683
969,-54999
970,-55714
971,-54239
972,-51270
973,-48296
974,-45880
975,-45244
976,-46441
977,-48714
978,-51850
979,-54786
980,-55086
981,-53369
982,-51026
983,-47730
984,-45302
985,-44740
986,-46027
987,-48451
988,-51541
989,-53866
990,-54531
991,-53823
992,-51232
993,-48026
994,-45467
995,-44854
996,-46061
997,-48586
998,-51692
999,-54259
1000,-54643
1001,-53021
1002,-50206
1003,-47598
1004,-45431
1005,-44358
1006,-45711
1007,-48473
1008,-51669
1009,-53796
1010,-54141
1011,-52628
1012,-50083
1013,-47126
1014,-45012
1015,-44352
1016,-46072
1017,-48716
1018,-51790
1019,-53794
1020,-54076
1021,-52831
1022,-50309
1023,-47689
1024,-45323
1025,-44887
1026,-45610
1027,-48203
1028,-51591
1029,-53767
1030,-54324
1031,-52587
1032,-49114
1033,-46059
1034,-45110
1035,-44936
1036,-45504
1037,-48506
1038,-51737
1039,-53739
1040,-54649
1041,-53397
1042,-50607
1043,-47169
1044,-44597
1045,-44191
1046,-45860
1047,-48436
1048,-51342
1049,-54008
1050,-54576
1051,-53261
1052,-50604
1053,-47211
1054,-44896
1055,-44493
1056,-45799
1057,-48446
1058,-51661
1059,-53646
1060,-53982
1061,-52838
1062,-50289
1063,-47407
1064,-45287
1065,-44712
1066,-46023
1067,-48398
1068,-51827
1069,-54106
1070,-54695
1071,-53532
1072,-50921
1073,-47762
1074,-45156
1075,-44773
1076,-46361
1077,-48820
1078,-51692
1079,-54012
1080,-54853
1081,-53402
1082,-50490
1083,-47684
1084,-45432
1085,-45527
1086,-46449
1087,-48750
1088,-52291
1089,-54737
1090,-55259
1091,-53951
1092,-51322
1093,-47977
1094,-45832
1095,-45451
1096,-46744
1097,-49488
1098,-52521
1099,-54709
1100,-55257
1101,-54346
1102,-51576
1103,-47536
1104,-45488
1105,-45920
1106,-46702
1107,-49166
1108,-52594
1109,-54853
1110,-55314
1111,-54396
1112,-51705
1113,-48337
1114,-46484
1115,-45991
1116,-47076
1117,-49588
1118,-52700
1119,-55101
1120,-55568
1121,-53717
1122,-50964
1123,-47726
1124,-46390
1125,-45896
1126,-46804
1127,-49542
1128,-53117
1129,-55530
1130,-55676
1131,-54282
1132,-51656
1133,-48328
1134,-46082
1135,-45653
1136,-46807
1137,-49364
1138,-52611
1139,-54781
1140,-55026
1141,-53716
1142,-51498
1143,-48369
1144,-46179
1145,-45540
1146,-46982
1147,-49526
1148,-52747
1149,-55122
1150,-55808
1151,-54327
1152,-51261
1153,-48216
1154,-46396
1155,-45742
1156,-46889
1157,-49556
1158,-53185
1159,-55249
1160,-55360
1161,-54694
1162,-52207
1163,-48803
1164,-46236
1165,-45552
1166,-46772
1167,-49467
1168,-52514
1169,-54943
1170,-55446
1171,-53931
1172,-51144
1173,-48096
1174,-45711
1175,-45277
1176,-46384
1177,-49114
1178,-52397
1179,-54509
1180,-55147
1181,-53845
1182,-51081
1183,-47779
1184,-45432
1185,-44881
1186,-46143
1187,-48599
1188,-51814
1189,-54209
1190,-54513
1191,-53129
1192,-50776
1193,-47579
1194,-44982
1195,-44083
1196,-45196
1197,-47970
1198,-51849
1199,-54395
1200,-54295
1201,-53311
1202,-50998
1203,-47241
1204,-44961
1205,-44594
1206,-46149
1207,-48779
1208,-51854
1209,-53879
1210,-54147
1211,-53217
1212,-50912
1213,-47176
1214,-44760
1215,-44201
1216,-45620
1217,-47944
1218,-50841
1219,-53704
1220,-54288
1221,-52926
1222,-50366
1223,-46971
1224,-45413
1225,-44732
1226,-45508
1227,-47992
1228,-51274
1229,-53677
1230,-54302
1231,-52861
1232,-50228
1233,-47151
1234,-44697
1235,-43991
1236,-44512
1237,-47602
1238,-51359
1239,-53593
1240,-54074
1241,-52628
1242,-49967
1243,-47076
1244,-44900
1245,-44059
1246,-45135
1247,-48148
1248,-51065
1249,-53134
1250,-53787
1251,-52702
1252,-50033
1253,-46610
1254,-44624
1255,-44232
1256,-45416
1257,-48164
1258,-51196
1259,-53241
1260,-53692
1261,-52407
1262,-49954
1263,-47142
1264,-44684
1265,-43751
1266,-45074
1267,-47959
1268,-51232
1269,-53767
1270,-54257
1271,-52636
1272,-49905
1273,-46846
1274,-44489
1275,-43886
1276,-45281
1277,-47717
1278,-50946
1279,-53514
1280,-53994
1281,-52667
1282,-50237
1283,-47178
1284,-44617
1285,-44059
1286,-45109
1287,-47746
1288,-51134
1289,-53773
1290,-54094
1291,-52719
1292,-50024
1293,-47135
1294,-45109
1295,-44226
1296,-45079
1297,-47970
1298,-51628
1299,-53933
1300,-54233
1301,-52765
1302,-50222
1303,-47240
1304,-45206
1305,-44537
1306,-45276
1307,-47477
1308,-51075
1309,-54230
1310,-54819
1311,-53097
1312,-49991
1313,-46712
1314,-44655
1315,-44570
1316,-45743
1317,-48649
1318,-51738
1319,-54176
1320,-54849
1321,-53374
1322,-50883
1323,-47629
1324,-45332
1325,-44982
1326,-46404
1327,-48590
1328,-51734
1329,-53749
1330,-54357
1331,-53652
1332,-51306
1333,-47834
1334,-45244
1335,-44607
1336,-45861
1337,-48538
1338,-51905
1339,-54067
1340,-54666
1341,-53280
1342,-50723
1343,-47720
1344,-45707
1345,-45029
1346,-45905
1347,-48546
1348,-51766
1349,-53882
1350,-54462
1351,-53504
1352,-50884
1353,-47506
1354,-45146
1355,-44650
1356,-45891
1357,-48801
1358,-51822
1359,-54057
1360,-54514
1361,-53722
1362,-51083
1363,-47616
1364,-45121
1365,-44508
1366,-45727
1367,-48797
1368,-51992
1369,-54149
1370,-54679
1371,-53427
1372,-50798
1373,-47582
1374,-45175
1375,-44503
1376,-45686
1377,-48716
1378,-51779
1379,-53931
1380,-54447
1381,-53204
1382,-50584
1383,-47421
1384,-44955
1385,-44513
1386,-45794
1387,-48396
1388,-51288
1389,-53359
1390,-54895
1391,-54253
1392,-51237
1393,-47519
1394,-44566
1395,-44400
1396,-46074
1397,-48486
1398,-51682
1399,-53984
1400,-54132
1401,-52404
1402,-49562
1403,-46470
1404,-45239
1405,-44662
1406,-45357
1407,-48169
1408,-51391
1409,-53600
1410,-54215
1411,-52905
1412,-50340
1413,-47044
1414,-44774
1415,-44234
1416,-45405
1417,-47946
1418,-51202
1419,-53536
1420,-53946
1421,-52521
1422,-49788
1423,-46623
1424,-44996
1425,-44369
1426,-45297
1427,-47828
1428,-51123
1429,-53586
1430,-54088
1431,-52398
1432,-49484
1433,-46367
1434,-44631
1435,-44974
1436,-45879
1437,-47902
1438,-51144
1439,-53558
1440,-53852
1441,-52329
1442,-49592
1443,-46414
1444,-44728
1445,-44477
1446,-45797
1447,-48129
1448,-51274
1449,-53694
1450,-54135
1451,-52686
1452,-50089
1453,-46555
1454,-44189
1455,-43946
1456,-45348
1457,-47765
1458,-51042
1459,-53627
1460,-53896
1461,-52279
1462,-49948
1463,-46842
1464,-44525
1465,-43874
1466,-45119
1467,-47879
1468,-51072
1469,-53514
1470,-54114
1471,-52908
1472,-50019
1473,-46451
1474,-44345
1475,-43721
1476,-45040
1477,-48081
1478,-51341
1479,-53197
1480,-53600
1481,-52663
1482,-50046
1483,-46735
1484,-44354
1485,-43843
1486,-45266
1487,-47952
1488,-51241
1489,-53537
1490,-53701
1491,-52441
1492,-50002
1493,-46779
1494,-44479
1495,-43469
1496,-44719
1497,-47803
1498,-50877
1499,-53022
1500,-53974
1501,-52946
1502,-49903
1503,-46661
1504,-44409
1505,-43709
1506,-45029
1507,-48000
1508,-51240
1509,-53351
1510,-53661
1511,-52187
1512,-49267
1513,-46148
1514,-44558
1515,-44383
1516,-45346
1517,-47831
1518,-51035
1519,-53303
1520,-53805
1521,-52552
1522,-49887
1523,-46771
1524,-44234
1525,-43426
1526,-44632
1527,-47528
1528,-51031
1529,-53063
1530,-52968
1531,-51866
1532,-49839
1533,-47552
1534,-45284
1535,-44282
1536,-45148
1537,-47574
1538,-50672
1539,-53113
1540,-53816
1541,-52821
1542,-50108
1543,-46554
1544,-44206
1545,-43525
1546,-44566
1547,-47452
1548,-50585
1549,-52872
1550,-53153
1551,-51676
1552,-49079
1553,-46160
1554,-44503
1555,-43699
1556,-44535
1557,-47007
1558,-50421
1559,-53015
1560,-53384
1561,-51949
1562,-49552
1563,-46234
1564,-43892
1565,-43109
1566,-44181
1567,-46842
1568,-50113
1569,-52650
1570,-53237
1571,-52076
1572,-49502
1573,-46383
1574,-44482
1575,-43881
1576,-44861
1577,-47241
1578,-50568
1579,-53041
1580,-53722
1581,-52660
1582,-50341
1583,-46947
1584,-44532
1585,-43767
1586,-44834
1587,-47620
1588,-50787
1589,-53361
1590,-54194
1591,-52916
1592,-50146
1593,-47171
1594,-44691
1595,-43930
1596,-45130
1597,-47764
1598,-50780
1599,-53447
1600,-54102
1601,-52791
1602,-50366
1603,-47141
1604,-44835
1605,-43921
1606,-45525
1607,-48319
1608,-51358
1609,-53911
1610,-54489
1611,-53172
1612,-50374
1613,-47186
1614,-44751
1615,-43881
1616,-45136
1617,-47816
1618,-51132
1619,-53884
1620,-54515
1621,-52986
1622,-49997
1623,-46779
1624,-44731
1625,-44190
1626,-45454
1627,-48173
1628,-51271
1629,-54067
1630,-54432
1631,-53024
1632,-50546
1633,-47454
1634,-45075
1635,-44463
1636,-45519
1637,-47856
1638,-50977
1639,-53395
1640,-54231
1641,-52932
1642,-50447
1643,-47171
1644,-44781
1645,-44113
1646,-45265
1647,-47877
1648,-51367
1649,-53719
1650,-53860
1651,-52366
1652,-49627
1653,-46761
1654,-44534
1655,-43724
1656,-44651
1657,-47584
1658,-51571
1659,-53650
1660,-53873
1661,-52627
1662,-50132
1663,-46938
1664,-44276
1665,-43610
1666,-45061
1667,-48066
1668,-51098
1669,-53114
1670,-53649
1671,-52676
1672,-50247
1673,-46802
1674,-43977
1675,-43539
1676,-44826
1677,-47664
1678,-51316
1679,-53649
1680,-54067
1681,-52620
1682,-49974
1683,-46727
1684,-44489
1685,-44194
1686,-45201
1687,-47664
1688,-50729
1689,-52938
1690,-53400
1691,-52729
1692,-50529
1693,-47186
1694,-44649
1695,-43812
1696,-44973
1697,-47448
1698,-51060
1699,-53411
1700,-53990
1701,-52907
1702,-49686
1703,-46482
1704,-44509
1705,-43912
1706,-44918
1707,-47492
1708,-50787
1709,-52959
1710,-53921
1711,-53045
1712,-49941
1713,-46747
1714,-44825
1715,-43810
1716,-45372
1717,-48215
1718,-50925
1719,-53161
1720,-54189
1721,-53209
1722,-49949
1723,-46662
1724,-45292
1725,-44274
1726,-45181
1727,-48007
1728,-51286
1729,-53431
1730,-54045
1731,-52959
1732,-50504
1733,-47119
1734,-44806
1735,-44447
1736,-45691
1737,-47971
1738,-51134
1739,-53320
1740,-54036
1741,-52987
1742,-50047
1743,-46928
1744,-44851
1745,-44597
1746,-45563
1747,-47913
1748,-51171
1749,-53743
1750,-54541
1751,-53446
1752,-50464
1753,-47211
1754,-45087
1755,-44685
1756,-45640
1757,-48337
1758,-51772
1759,-53975
1760,-54336
1761,-52819
1762,-49916
1763,-47034
1764,-44762
1765,-43956
1766,-45244
1767,-48461
1768,-51886
1769,-54191
1770,-54656
1771,-53261
1772,-50497
1773,-47876
1774,-45390
1775,-44686
1776,-45729
1777,-48371
1778,-51364
1779,-53622
1780,-54626
1781,-53252
1782,-50249
1783,-48102
1784,-45988
1785,-45047
1786,-45769
1787,-48371
1788,-51747
1789,-54251
1790,-54738
1791,-53261
1792,-50690
1793,-47538
1794,-45099
1795,-44431
1796,-45647
1797,-48132
1798,-51464
1799,-53899
1800,-54236
1801,-53112
1802,-50532
1803,-47229
1804,-44766
1805,-44130
1806,-45206
1807,-48242
1808,-51956
1809,-54079
1810,-54134
1811,-53074
1812,-50409
1813,-47554
1814,-45218
1815,-44506
1816,-45524
1817,-48377
1818,-51492
1819,-53763
1820,-54460
1821,-53565
1822,-50969
1823,-47853
1824,-45386
1825,-44616
1826,-45300
1827,-47890
1828,-51688
1829,-54316
1830,-54607
1831,-53212
1832,-50544
1833,-47279
1834,-45022
1835,-44841
1836,-45939
1837,-48327
1838,-51371
1839,-53994
1840,-54563
1841,-53185
1842,-50519
1843,-47369
1844,-45528
1845,-44827
1846,-46045
1847,-48610
1848,-51968
1849,-54234
1850,-54445
1851,-53046
1852,-50402
1853,-47769
1854,-45842
1855,-44935
1856,-45925
1857,-48709
1858,-51636
1859,-54269
1860,-54861
1861,-53623
1862,-51031
1863,-47576
1864,-45305
1865,-44401
1866,-45764
1867,-48493
1868,-51099
1869,-53776
1870,-54891
1871,-54230
1872,-51548
1873,-47943
1874,-45557
1875,-44908
1876,-46021
1877,-48980
1878,-52185
1879,-54377
1880,-55005
1881,-53757
1882,-51069
1883,-47934
1884,-45662
1885,-45141
1886,-46355
1887,-48776
1888,-51957
1889,-54247
1890,-54846
1891,-53389
1892,-50770
1893,-47575
1894,-45481
1895,-44977
1896,-46007
1897,-48715
1898,-52369
1899,-54470
1900,-54881
1901,-53576
1902,-50892
1903,-47711
1904,-45506
1905,-45047
1906,-46137
1907,-48789
1908,-52187
1909,-54359
1910,-54248
1911,-52691
1912,-49927
1913,-46799
1914,-45308
1915,-45048
1916,-46006
1917,-48946
1918,-52577
1919,-54543
1920,-55016
1921,-53701
1922,-50881
1923,-47489
1924,-44864
1925,-44377
1926,-45926
1927,-48287
1928,-51264
1929,-54216
1930,-55231
1931,-53799
1932,-50688
1933,-47654
1934,-45295
1935,-44511
1936,-45775
1937,-48495
1938,-52027
1939,-54073
1940,-54426
1941,-53319
1942,-50672
1943,-47397
1944,-44809
1945,-43887
1946,-45318
1947,-48492
1948,-51654
1949,-53771
1950,-54264
1951,-53332
1952,-50867
1953,-47651
1954,-45173
1955,-44354
1956,-45974
1957,-48762
1958,-51707
1959,-54078
1960,-54556
1961,-53144
1962,-50269
1963,-46943
1964,-45189
1965,-44870
1966,-45704
1967,-48278
1968,-51574
1969,-53976
1970,-54581
1971,-53386
1972,-50891
1973,-47355
1974,-45026
1975,-44524
1976,-46051
1977,-48837
1978,-52122
1979,-54247
1980,-54739
1981,-53447
1982,-50749
1983,-47769
1984,-45238
1985,-44539
1986,-46017
1987,-48732
1988,-51955
1989,-54257
1990,-54900
1991,-53891
1992,-51118
1993,-47573
1994,-45371
1995,-44970
1996,-46092
1997,-48928
1998,-52242
1999,-54611
2000,-55358
2001,-53946
2002,-51188
2003,-47941
2004,-45594
2005,-45263
2006,-46556
2007,-48564
2008,-51819
2009,-54669
2010,-55019
2011,-53484
2012,-50898
2013,-47909
2014,-46070
2015,-45264
2016,-46403
2017,-49208
2018,-52430
2019,-55462
2020,-63880
2021,-60682
2022,-51826
2023,-48342
2024,-45951
2025,-45277
2026,-46576
2027,-49236
2028,-52445
2029,-56306
2030,-66253
2031,-63566
2032,-51772
2033,-47550
2034,-45170
2035,-43996
2036,-45172
2037,-48192
2038,-52032
2039,-56695
2040,-66643
2041,-64600
2042,-52588
2043,-47567
2044,-45181
2045,-44994
2046,-46267
2047,-48886
2048,-52129
2049,-56536
2050,-66592
2051,-65566
2052,-53466
2053,-47619
2054,-45041
2055,-44204
2056,-45250
2057,-47976
2058,-52177
2059,-55157
2060,-32492
2061,-49095
2062,-55365
2063,-47431
2064,-44977
2065,-44601
2066,-45784
2067,-48730
2068,-52007
2069,-50840
2070,-18034
2071,-40229
2072,-55656
2073,-47581
2074,-44866
2075,-44111
2076,-45632
2077,-48592
2078,-52091
2079,-48812
2080,-13026
2081,-33071
2082,-55004
2083,-47206
2084,-44694
2085,-43857
2086,-44606
2087,-47736
2088,-51981
2089,-48157
2090,-11657
2091,-32727
2092,-54719
2093,-47060
2094,-44401
2095,-43869
2096,-45259
2097,-47941
2098,-51304
2099,-47302
2100,-11714
2101,-32126
2102,-54786
2103,-46748
2104,-44265
2105,-43814
2106,-44871
2107,-47589
2108,-51605
2109,-47743
2110,-11272
2111,-31563
2112,-54829
2113,-47724
2114,-44871
2115,-43910
2116,-45321
2117,-47885
2118,-51645
2119,-45810
2120,-9984
2121,-31934
2122,-54813
2123,-47665
2124,-45100
2125,-44133
2126,-45570
2127,-48276
2128,-51911
2129,-48526
2130,-12292
2131,-34514
2132,-55541
2133,-47566
2134,-45307
2135,-44893
2136,-46296
2137,-48671
2138,-52024
2139,-53054
2140,-22176
2141,-44252
2142,-55847
2143,-48038
2144,-45617
2145,-45019
2146,-46195
2147,-48929
2148,-52465
2149,-58041
2150,-64825
2151,-65532
2152,-53302
2153,-47737
2154,-45328
2155,-45175
2156,-46347
2157,-49031
2158,-52145
2159,-56741
2160,-67194
2161,-65142
2162,-52946
2163,-47814
2164,-45366
2165,-44524
2166,-46001
2167,-48793
2168,-52025
2169,-55747
2170,-65071
2171,-61803
2172,-51297
2173,-47557
2174,-45269
2175,-44674
2176,-46089
2177,-48727
2178,-51513
2179,-54574
2180,-62806
2181,-58942
2182,-50723
2183,-47787
2184,-45467
2185,-44542
2186,-45805
2187,-48544
2188,-51694
2189,-54301
2190,-61059
2191,-58016
2192,-51298
2193,-47611
2194,-45037
2195,-44622
2196,-45882
2197,-48596
2198,-51775
2199,-53757
2200,-54344
2201,-53462
2202,-51065
2203,-47754
2204,-45251
2205,-44664
2206,-45728
2207,-48507
2208,-51839
2209,-54107
2210,-54650
2211,-53427
2212,-50596
2213,-47387
2214,-44844
2215,-44194
2216,-45454
2217,-48827
2218,-52422
2219,-54514
2220,-55101
2221,-53577
2222,-50659
2223,-47306
2224,-44948
2225,-44264
2226,-45301
2227,-48101
2228,-51457
2229,-53780
2230,-59727
2231,-56817
2232,-50738
2233,-47368
2234,-45190
2235,-44569
2236,-45759
2237,-48781
2238,-52028
2239,-55054
2240,-63121
2241,-59282
2242,-50892
2243,-47531
2244,-45172
2245,-44716
2246,-45719
2247,-47953
2248,-50817
2249,-54258
2250,-65069
2251,-63211
2252,-52554
2253,-47744
2254,-45423
2255,-45301
2256,-46387
2257,-49069
2258,-52567
2259,-56659
2260,-66779
2261,-64927
2262,-52698
2263,-47739
2264,-45306
2265,-44795
2266,-46012
2267,-49224
2268,-53078
2269,-57537
2270,-67554
2271,-66079
2272,-53595
2273,-48256
2274,-46058
2275,-45586
2276,-46911
2277,-49734
2278,-52718
2279,-57292
2280,-67604
2281,-66489
2282,-54087
2283,-48293
2284,-45766
2285,-44943
2286,-46067
2287,-49055
2288,-52420
2289,-57259
2290,-67104
2291,-65613
2292,-53642
2293,-48528
2294,-45851
2295,-44616
2296,-45892
2297,-48536
2298,-51539
2299,-56244
2300,-67077
2301,-64167
2302,-51904
2303,-47734
2304,-45336
2305,-44692
2306,-46032
2307,-48709
2308,-51979
2309,-54729
2310,-61022
2311,-57577
2312,-51219
2313,-47996
2314,-45435
2315,-44985
2316,-46266
2317,-48202
2318,-51132
2319,-54246
2320,-55728
2321,-54289
2322,-51027
2323,-47653
2324,-45516
2325,-44994
2326,-46093
2327,-48563
2328,-51718
2329,-54251
2330,-54807
2331,-53623
2332,-50983
2333,-47725
2334,-45352
2335,-44736
2336,-45870
2337,-48452
2338,-52077
2339,-54796
2340,-55173
2341,-53970
2342,-51216
2343,-47552
2344,-45102
2345,-44635
2346,-45677
2347,-48347
2348,-51986
2349,-54332
2350,-54665
2351,-53452
2352,-51029
2353,-47770
2354,-45375
2355,-44714
2356,-45817
2357,-48478
2358,-52113
2359,-54614
2360,-55198
2361,-53987
2362,-51186
2363,-47784
2364,-44902
2365,-43957
2366,-45191
2367,-48375
2368,-52197
2369,-54848
2370,-55278
2371,-54052
2372,-51683
2373,-48460
2374,-45742
2375,-44853
2376,-45673
2377,-48385
2378,-51827
2379,-54625
2380,-55491
2381,-54566
2382,-51853
2383,-48457
2384,-45896
2385,-45199
2386,-46449
2387,-49334
2388,-52990
2389,-55461
2390,-56173
2391,-54787
2392,-52346
2393,-49200
2394,-46667
2395,-45711
2396,-46895
2397,-49949
2398,-53234
2399,-55845
2400,-56594
2401,-55141
2402,-52727
2403,-49751
2404,-46951
2405,-46354
2406,-47509
2407,-50104
2408,-53539
2409,-55979
2410,-56547
2411,-55185
2412,-52732
2413,-49388
2414,-46773
2415,-46229
2416,-47549
2417,-50356
2418,-53447
2419,-56213
2420,-57229
2421,-55754
2422,-52936
2423,-49771
2424,-47256
2425,-46877
2426,-48203
2427,-50821
2428,-54033
2429,-56572
2430,-57669
2431,-56766
2432,-53664
2433,-49907
2434,-47956
2435,-47426
2436,-48020
2437,-50434
2438,-53852
2439,-55971
2440,-56606
2441,-55390
2442,-52294
2443,-48607
2444,-45999
2445,-45503
2446,-46629
2447,-48937
2448,-52207
2449,-55130
2450,-55782
2451,-54275
2452,-52181
2453,-49237
2454,-46772
2455,-46452
2456,-47896
2457,-50307
2458,-53909
2459,-56627
2460,-57562
2461,-56644
2462,-53838
2463,-50236
2464,-47882
2465,-47506
2466,-48825
2467,-51154
2468,-54391
2469,-56869
2470,-57368
2471,-55372
2472,-53138
2473,-50155
2474,-47259
2475,-46633
2476,-48117
2477,-50599
2478,-53582
2479,-56003
2480,-57259
2481,-56392
2482,-53363
2483,-49736
2484,-47292
2485,-46581
2486,-47542
2487,-50677
2488,-54056
2489,-56302
2490,-57186
2491,-55670
2492,-53238
2493,-50056
2494,-47639
2495,-46284
2496,-47002
2497,-49867
2498,-53580
2499,-56292
2500,-56847
2501,-55941
2502,-53853
2503,-50262
2504,-47831
2505,-47261
2506,-48216
2507,-50764
2508,-54114
2509,-57344
2510,-65117
2511,-62141
2512,-53803
2513,-50366
2514,-47914
2515,-47162
2516,-48336
2517,-51052
2518,-54507
2519,-57740
2520,-66944
2521,-65167
2522,-54443
2523,-50367
2524,-47939
2525,-47212
2526,-48469
2527,-50970
2528,-54059
2529,-58437
2530,-68651
2531,-67749
2532,-55657
2533,-50734
2534,-48195
2535,-47431
2536,-48569
2537,-51094
2538,-54052
2539,-57932
2540,-68184
2541,-67167
2542,-55277
2543,-51077
2544,-48206
2545,-46932
2546,-48353
2547,-51569
2548,-55164
2549,-59297
2550,-69509
2551,-68591
2552,-56491
2553,-50912
2554,-47989
2555,-47636
2556,-49144
2557,-51718
2558,-55130
2559,-59499
2560,-69875
2561,-69332
2562,-56908
2563,-51059
2564,-48486
2565,-47692
2566,-49149
2567,-51809
2568,-55356
2569,-59889
2570,-70069
2571,-69003
2572,-56678
2573,-51140
2574,-49113
2575,-48479
2576,-49199
2577,-51807
2578,-55246
2579,-59914
2580,-70208
2581,-69115
2582,-56237
2583,-50617
2584,-48917
2585,-48551
2586,-49191
2587,-52012
2588,-55607
2589,-60819
2590,-71085
2591,-69716
2592,-57089
2593,-51429
2594,-48671
2595,-48232
2596,-49628
2597,-52009
2598,-55253
2599,-60367
2600,-70653
2601,-69841
2602,-57399
2603,-51154
2604,-48962
2605,-48231
2606,-49026
2607,-51611
2608,-55672
2609,-60551
2610,-70914
2611,-69541
2612,-57437
2613,-51704
2614,-48826
2615,-48286
2616,-49432
2617,-51941
2618,-55552
2619,-60259
2620,-70534
2621,-69800
2622,-57439
2623,-51285
2624,-48707
2625,-48348
2626,-49825
2627,-52480
2628,-55569
2629,-60229
2630,-70542
2631,-69602
2632,-56994
2633,-51973
2634,-49683
2635,-48772
2636,-49839
2637,-52565
2638,-56035
2639,-60609
2640,-71099
2641,-70376
2642,-57774
2643,-51756
2644,-49366
2645,-48757
2646,-49894
2647,-52787
2648,-56188
2649,-60722
2650,-71162
2651,-70329
2652,-57868
2653,-52031
2654,-49408
2655,-48444
2656,-49684
2657,-52657
2658,-56501
2659,-60981
2660,-71076
2661,-70120
2662,-57549
2663,-52054
2664,-49344
2665,-48452
2666,-50091
2667,-53223
2668,-56661
2669,-60937
2670,-71591
2671,-70157
2672,-57660
2673,-52234
2674,-49679
2675,-48945
2676,-50141
2677,-52918
2678,-56403
2679,-60550
2680,-70816
2681,-70124
2682,-57669
2683,-52248
2684,-49661
2685,-48988
2686,-50219
2687,-52757
2688,-56454
2689,-61021
2690,-71109
2691,-69899
2692,-57602
2693,-52545
2694,-49869
2695,-49165
2696,-50431
2697,-53086
2698,-56619
2699,-60965
2700,-71257
2701,-69967
2702,-57657
2703,-52791
2704,-50346
2705,-49297
2706,-50271
2707,-52963
2708,-56553
2709,-60869
2710,-70873
2711,-69366
2712,-57231
2713,-52570
2714,-50232
2715,-49343
2716,-50497
2717,-53376
2718,-56999
2719,-60775
2720,-70872
2721,-69620
2722,-57491
2723,-52808
2724,-50253
2725,-49366
2726,-50567
2727,-53446
2728,-56939
2729,-60932
2730,-70847
2731,-70299
2732,-58169
2733,-53074
2734,-50429
2735,-49612
2736,-50827
2737,-53861
2738,-57287
2739,-61557
2740,-71741
2741,-70406
2742,-58271
2743,-53071
2744,-50471
2745,-49659
2746,-50918
2747,-53650
2748,-57269
2749,-61798
2750,-72047
2751,-71071
2752,-58612
2753,-53230
2754,-50526
2755,-49747
2756,-51273
2757,-54139
2758,-57346
2759,-61698
2760,-71943
2761,-71104
2762,-58462
2763,-52707
2764,-50322
2765,-50094
2766,-51403
2767,-54125
2768,-57541
2769,-61702
2770,-71854
2771,-71245
2772,-58675
2773,-53019
2774,-50668
2775,-50077
2776,-51238
2777,-53982
2778,-57436
2779,-60886
2780,-70393
2781,-67740
2782,-57031
2783,-53241
2784,-50429
2785,-49585
2786,-51271
2787,-53861
2788,-57330
2789,-60065
2790,-60773
2791,-59137
2792,-56167
2793,-52962
2794,-50511
2795,-49799
2796,-50984
2797,-54004
2798,-57496
2799,-59992
2800,-60819
2801,-59302
2802,-56486
2803,-53151
2804,-50506
2805,-49704
2806,-50697
2807,-53856
2808,-57462
2809,-59838
2810,-60646
2811,-59444
2812,-56777
2813,-53175
2814,-50482
2815,-49588
2816,-51294
2817,-54629
2818,-57901
2819,-60091
2820,-60733
2821,-59542
2822,-56687
2823,-53117
2824,-50604
2825,-50007
2826,-51288
2827,-54123
2828,-57804
2829,-60323
2830,-60852
2831,-59394
2832,-56571
2833,-53291
2834,-50672
2835,-50001
2836,-51474
2837,-54257
2838,-57732
2839,-60328
2840,-60956
2841,-59716
2842,-56881
2843,-53152
2844,-50528
2845,-49871
2846,-51224
2847,-54236
2848,-58094
2849,-60408
2850,-60987
2851,-59721
2852,-57091
2853,-53674
2854,-50859
2855,-49986
2856,-51531
2857,-54544
2858,-57912
2859,-60502
2860,-61522
2861,-60154
2862,-56961
2863,-53465
2864,-50861
2865,-50399
2866,-51589
2867,-54591
2868,-58187
2869,-60771
2870,-61339
2871,-59914
2872,-57147
2873,-53900
2874,-51412
2875,-50175
2876,-51104
2877,-54307
2878,-58346
2879,-60983
2880,-61220
2881,-59774
2882,-56962
2883,-53526
2884,-50978
2885,-50473
2886,-51709
2887,-54321
2888,-57823
2889,-60627
2890,-61209
2891,-59998
2892,-57228
2893,-53637
2894,-50939
2895,-50274
2896,-51649
2897,-54486
2898,-57949
2899,-60584
2900,-61387
2901,-60131
2902,-57149
2903,-53548
2904,-51070
2905,-50292
2906,-51611
2907,-54676
2908,-58344
2909,-60817
2910,-61826
2911,-60274
2912,-57281
2913,-53695
2914,-51078
2915,-50741
2916,-52331
2917,-54922
2918,-58386
2919,-61114
2920,-61797
2921,-60478
2922,-57764
2923,-54284
2924,-51726
2925,-51051
2926,-52036
2927,-54674
2928,-58432
2929,-61014
2930,-61604
2931,-60259
2932,-57584
2933,-54154
2934,-51478
2935,-50722
2936,-51999
2937,-54674
2938,-58427
2939,-61364
2940,-61851
2941,-60550
2942,-57810
2943,-54171
2944,-51700
2945,-50811
2946,-52087
2947,-55218
2948,-58454
2949,-61106
2950,-61721
2951,-60467
2952,-57742
2953,-54032
2954,-51532
2955,-50883
2956,-52191
2957,-54817
2958,-58645
2959,-61149
2960,-61652
2961,-60672
2962,-57744
2963,-54202
2964,-51432
2965,-51296
2966,-52289
2967,-55110
2968,-58507
2969,-61134
2970,-61734
2971,-60482
2972,-57729
2973,-54102
2974,-51512
2975,-50789
2976,-52084
2977,-54999
2978,-58641
2979,-61430
2980,-62085
2981,-60740
2982,-57756
2983,-54205
2984,-51662
2985,-50956
2986,-52191
2987,-55142
2988,-58726
2989,-60994
2990,-61632
2991,-60352
2992,-58100
2993,-54517
2994,-51472
2995,-50983
2996,-52612
2997,-55022
2998,-58701
2999,-61671
3000,-62212
3001,-60812
3002,-57995
3003,-54456
3004,-51993
3005,-51296
3006,-52816
3007,-55656
3008,-59045
3009,-61524
3010,-62369
3011,-61144
3012,-58237
3013,-54902
3014,-52325
3015,-51624
3016,-52954
3017,-55733
3018,-59366
3019,-61888
3020,-62497
3021,-61246
3022,-58362
3023,-54656
3024,-52225
3025,-51791
3026,-52835
3027,-55608
3028,-59421
3029,-62267
3030,-62801
3031,-61407
3032,-58548
3033,-55058
3034,-52557
3035,-51748
3036,-52834
3037,-55685
3038,-59625
3039,-62324
3040,-62719
3041,-60912
3042,-58494
3043,-55122
3044,-52437
3045,-52019
3046,-53372
3047,-56112
3048,-59739
3049,-62564
3050,-63139
3051,-61579
3052,-58532
3053,-55014
3054,-52827
3055,-52200
3056,-53563
3057,-56269
3058,-59809
3059,-62484
3060,-63072
3061,-61687
3062,-58797
3063,-55393
3064,-52709
3065,-51942
3066,-53453
3067,-56560
3068,-59981
3069,-62412
3070,-63005
3071,-61519
3072,-58891
3073,-55701
3074,-53074
3075,-52371
3076,-53747
3077,-56464
3078,-59922
3079,-62280
3080,-62917
3081,-61744
3082,-58892
3083,-55344
3084,-52696
3085,-51806
3086,-53007
3087,-56050
3088,-59654
3089,-61914
3090,-62427
3091,-61514
3092,-58776
3093,-55081
3094,-52674
3095,-52045
3096,-53175
3097,-56059
3098,-59752
3099,-62402
3100,-62937
3101,-61472
3102,-58672
3103,-54796
3104,-52259
3105,-51530
3106,-52650
3107,-55576
3108,-59337
3109,-61936
3110,-61906
3111,-60422
3112,-57725
3113,-53782
3114,-51436
3115,-51814
3116,-52638
3117,-55076
3118,-59089
3119,-61547
3120,-62174
3121,-61082
3122,-58542
3123,-54504
3124,-51916
3125,-51562
3126,-52659
3127,-55512
3128,-59232
3129,-61744
3130,-62404
3131,-61119
3132,-58104
3133,-54534
3134,-52044
3135,-51210
3136,-52427
3137,-55385
3138,-59080
3139,-61617
3140,-62202
3141,-60904
3142,-58231
3143,-54877
3144,-52197
3145,-51529
3146,-52730
3147,-55405
3148,-58744
3149,-61235
3150,-62227
3151,-61219
3152,-58239
3153,-54809
3154,-52087
3155,-51442
3156,-52722
3157,-55419
3158,-58949
3159,-61458
3160,-61999
3161,-60924
3162,-58346
3163,-54693
3164,-51906
3165,-51206
3166,-52561
3167,-55358
3168,-59043
3169,-61436
3170,-61983
3171,-60899
3172,-58229
3173,-54463
3174,-51646
3175,-50809
3176,-52324
3177,-55235
3178,-58767
3179,-61104
3180,-61664
3181,-60645
3182,-57942
3183,-54495
3184,-51900
3185,-50881
3186,-52032
3187,-54977
3188,-58430
3189,-60917
3190,-61534
3191,-60285
3192,-57814
3193,-54353
3194,-51727
3195,-50989
3196,-52178
3197,-54987
3198,-58605
3199,-61113
3200,-61807
3201,-60453
3202,-57538
3203,-54034
3204,-51568
3205,-50711
3206,-51839
3207,-54674
3208,-58401
3209,-61018
3210,-61453
3211,-60398
3212,-57513
3213,-54051
3214,-51660
3215,-50927
3216,-52011
3217,-54782
3218,-58225
3219,-60986
3220,-61219
3221,-59844
3222,-57467
3223,-54102
3224,-51409
3225,-50951
3226,-52484
3227,-55212
3228,-58369
3229,-60946
3230,-61829
3231,-60557
3232,-57667
3233,-53953
3234,-51172
3235,-50427
3236,-51924
3237,-55240
3238,-58601
3239,-60815
3240,-61557
3241,-60741
3242,-57621
3243,-53897
3244,-51506
3245,-50822
3246,-52094
3247,-55006
3248,-58624
3249,-60972
3250,-61303
3251,-60004
3252,-57864
3253,-54064
3254,-51656
3255,-51060
3256,-52244
3257,-55027
3258,-58341
3259,-60889
3260,-61563
3261,-60194
3262,-57387
3263,-54327
3264,-51887
3265,-51361
3266,-52461
3267,-55270
3268,-58736
3269,-61209
3270,-61799
3271,-60603
3272,-57679
3273,-54208
3274,-51829
3275,-51111
3276,-52272
3277,-55246
3278,-59032
3279,-61569
3280,-62148
3281,-60577
3282,-57609
3283,-54230
3284,-51629
3285,-50739
3286,-52434
3287,-55345
3288,-58889
3289,-61339
3290,-61716
3291,-60267
3292,-57859
3293,-54537
3294,-52141
3295,-51331
3296,-52332
3297,-55001
3298,-58366
3299,-61014
3300,-61879
3301,-61134
3302,-58011
3303,-54394
3304,-51985
3305,-51562
3306,-53184
3307,-55884
3308,-59086
3309,-61435
3310,-61986
3311,-61083
3312,-58024
3313,-54354
3314,-52049
3315,-51678
3316,-53077
3317,-55857
3318,-59122
3319,-61486
3320,-62050
3321,-60766
3322,-58004
3323,-54461
3324,-51974
3325,-51294
3326,-52367
3327,-55290
3328,-58852
3329,-61498
3330,-61745
3331,-60661
3332,-58025
3333,-54706
3334,-52212
3335,-51398
3336,-52597
3337,-55321
3338,-59003
3339,-61366
3340,-61694
3341,-60250
3342,-57714
3343,-54314
3344,-52144
3345,-51442
3346,-52741
3347,-55394
3348,-58663
3349,-61129
3350,-61733
3351,-60506
3352,-57849
3353,-54161
3354,-51527
3355,-50691
3356,-52363
3357,-55191
3358,-58390
3359,-61216
3360,-61747
3361,-60346
3362,-57619
3363,-54135
3364,-51543
3365,-50736
3366,-51794
3367,-54516
3368,-58301
3369,-60645
3370,-61650
3371,-60286
3372,-57444
3373,-54004
3374,-51452
3375,-50456
3376,-51560
3377,-54483
3378,-58284
3379,-60669
3380,-61259
3381,-59850
3382,-57119
3383,-54219
3384,-51741
3385,-50670
3386,-51326
3387,-54124
3388,-58310
3389,-61270
3390,-61742
3391,-59949
3392,-57253
3393,-53854
3394,-51386
3395,-50694
3396,-51872
3397,-54365
3398,-57962
3399,-60777
3400,-61209
3401,-59401
3402,-56830
3403,-53929
3404,-51264
3405,-50440
3406,-51827
3407,-54387
3408,-57763
3409,-60502
3410,-61321
3411,-59768
3412,-56955
3413,-53643
3414,-51265
3415,-50197
3416,-51261
3417,-54729
3418,-58257
3419,-60622
3420,-61095
3421,-59867
3422,-57234
3423,-53951
3424,-51119
3425,-50428
3426,-52111
3427,-54672
3428,-57567
3429,-60306
3430,-61337
3431,-59765
3432,-57114
3433,-53834
3434,-51584
3435,-50780
3436,-51618
3437,-54187
3438,-57874
3439,-60443
3440,-60661
3441,-59451
3442,-56862
3443,-54049
3444,-51759
3445,-50601
3446,-51954
3447,-54606
3448,-58006
3449,-60498
3450,-61087
3451,-59411
3452,-56540
3453,-53584
3454,-51229
3455,-50502
3456,-51662
3457,-54189
3458,-57736
3459,-60468
3460,-61150
3461,-59845
3462,-57137
3463,-53856
3464,-51339
3465,-50706
3466,-51941
3467,-54355
3468,-57530
3469,-59978
3470,-61080
3471,-59722
3472,-56538
3473,-53528
3474,-51188
3475,-50637
3476,-51736
3477,-54363
3478,-58007
3479,-60327
3480,-60833
3481,-59548
3482,-56915
3483,-53738
3484,-51225
3485,-50765
3486,-51852
3487,-54342
3488,-57569
3489,-60411
3490,-61009
3491,-59837
3492,-57269
3493,-53853
3494,-51254
3495,-50267
3496,-51536
3497,-54431
3498,-57728
3499,-60200
3500,-60736
3501,-59545
3502,-56701
3503,-53515
3504,-51383
3505,-50789
3506,-51825
3507,-54350
3508,-57847
3509,-60017
3510,-60451
3511,-59698
3512,-57163
3513,-53542
3514,-50859
3515,-50274
3516,-51312
3517,-53852
3518,-57589
3519,-60407
3520,-60765
3521,-59453
3522,-56903
3523,-53549
3524,-51149
3525,-50457
3526,-51662
3527,-54134
3528,-57301
3529,-59691
3530,-60429
3531,-59617
3532,-56912
3533,-53526
3534,-51171
3535,-50414
3536,-51531
3537,-54196
3538,-57791
3539,-60274
3540,-60707
3541,-59364
3542,-56717
3543,-53557
3544,-51316
3545,-50703
3546,-51637
3547,-53750
3548,-57262
3549,-60154
3550,-60598
3551,-59238
3552,-56837
3553,-53472
3554,-50912
3555,-50278
3556,-51785
3557,-54189
3558,-57095
3559,-59784
3560,-60674
3561,-59922
3562,-57166
3563,-53363
3564,-50896
3565,-50406
3566,-51606
3567,-54326
3568,-57793
3569,-60174
3570,-60795
3571,-59724
3572,-57044
3573,-53626
3574,-51196
3575,-50443
3576,-51552
3577,-54213
3578,-57525
3579,-60071
3580,-60495
3581,-59777
3582,-57372
3583,-53708
3584,-50868
3585,-50167
3586,-51596
3587,-54401
3588,-57762
3589,-60147
3590,-60759
3591,-59554
3592,-57023
3593,-53578
3594,-50937
3595,-50309
3596,-51538
3597,-53885
3598,-57389
3599,-60374
3600,-60778
3601,-59484
3602,-56687
3603,-53128
3604,-51089
3605,-50568
3606,-51848
3607,-54434
3608,-57661
3609,-60089
3610,-60862
3611,-59631
3612,-56737
3613,-53272
3614,-50971
3615,-50654
3616,-51964
3617,-54306
3618,-57677
3619,-60512
3620,-61017
3621,-59607
3622,-57122
3623,-53827
3624,-51276
3625,-50781
3626,-51914
3627,-54321
3628,-57637
3629,-60168
3630,-60837
3631,-59743
3632,-57247
3633,-53881
3634,-51447
3635,-50827
3636,-51979
3637,-54411
3638,-57665
3639,-60332
3640,-60984
3641,-59714
3642,-57199
3643,-53859
3644,-51204
3645,-50374
3646,-51599
3647,-54475
3648,-57569
3649,-59752
3650,-60527
3651,-59795
3652,-57802
3653,-54447
3654,-51417
3655,-50561
3656,-52107
3657,-54916
3658,-58167
3659,-60486
3660,-61209
3661,-60241
3662,-57678
3663,-53907
3664,-51189
3665,-50427
3666,-51578
3667,-54282
3668,-57584
3669,-60144
3670,-61172
3671,-59981
3672,-57360
3673,-54088
3674,-51722
3675,-51099
3676,-52117
3677,-54687
3678,-58071
3679,-60297
3680,-60950
3681,-60022
3682,-57722
3683,-54688
3684,-51994
3685,-51068
3686,-52126
3687,-54788
3688,-58021
3689,-60754
3690,-61437
3691,-60199
3692,-57486
3693,-54002
3694,-51554
3695,-50923
3696,-52176
3697,-54739
3698,-58081
3699,-60544
3700,-61172
3701,-60016
3702,-57262
3703,-53697
3704,-51133
3705,-50904
3706,-52387
3707,-54911
3708,-58163
3709,-60737
3710,-61312
3711,-60191
3712,-57753
3713,-54245
3714,-51659
3715,-50984
3716,-52032
3717,-54660
3718,-58052
3719,-60636
3720,-61544
3721,-60185
3722,-57429
3723,-54131
3724,-51635
3725,-50907
3726,-52071
3727,-54967
3728,-58282
3729,-60835
3730,-61733
3731,-60386
3732,-57654
3733,-53886
3734,-51077
3735,-50366
3736,-51796
3737,-54687
3738,-58435
3739,-61147
3740,-62329
3741,-60735
3742,-58079
3743,-54614
3744,-52096
3745,-51290
3746,-52438
3747,-55228
3748,-58637
3749,-61036
3750,-61664
3751,-60537
3752,-57969
3753,-54517
3754,-51969
3755,-51221
3756,-52531
3757,-55030
3758,-58384
3759,-61306
3760,-62206
3761,-60715
3762,-58006
3763,-54632
3764,-51994
3765,-51289
3766,-52749
3767,-55232
3768,-58486
3769,-61227
3770,-62048
3771,-60654
3772,-57800
3773,-54676
3774,-52744
3775,-51976
3776,-53070
3777,-55567
3778,-58963
3779,-61554
3780,-62275
3781,-61056
3782,-58453
3783,-55094
3784,-52553
3785,-51811
3786,-52956
3787,-55581
3788,-58948
3789,-61450
3790,-62441
3791,-61057
3792,-58344
3793,-55114
3794,-52758
3795,-51995
3796,-53151
3797,-55912
3798,-59306
3799,-61945
3800,-62602
3801,-61606
3802,-58933
3803,-55162
3804,-52661
3805,-52231
3806,-53439
3807,-56169
3808,-59526
3809,-62032
3810,-62869
3811,-61680
3812,-58973
3813,-55634
3814,-53117
3815,-52257
3816,-53019
3817,-55933
3818,-59541
3819,-61991
3820,-63304
3821,-62277
3822,-59594
3823,-55784
3824,-53202
3825,-52553
3826,-53679
3827,-56347
3828,-59909
3829,-62448
3830,-63155
3831,-62178
3832,-59306
3833,-55764
3834,-53377
3835,-52674
3836,-53839
3837,-56456
3838,-59867
3839,-62358
3840,-63154
3841,-62148
3842,-59583
3843,-56074
3844,-53427
3845,-52866
3846,-53952
3847,-56329
3848,-60086
3849,-62931
3850,-63499
3851,-62546
3852,-59763
3853,-56530
3854,-53934
3855,-53036
3856,-54201
3857,-56969
3858,-60380
3859,-62989
3860,-63917
3861,-62797
3862,-60161
3863,-56382
3864,-53796
3865,-53251
3866,-54215
3867,-57096
3868,-60901
3869,-63460
3870,-64061
3871,-62734
3872,-60099
3873,-56635
3874,-53957
3875,-53289
3876,-54518
3877,-57206
3878,-60736
3879,-63377
3880,-63899
3881,-62499
3882,-59828
3883,-57304
3884,-54787
3885,-53802
3886,-54837
3887,-57378
3888,-60938
3889,-63601
3890,-64329
3891,-62976
3892,-60257
3893,-57367
3894,-54632
3895,-53859
3896,-55064
3897,-57664
3898,-61236
3899,-63779
3900,-64550
3901,-63398
3902,-60676
3903,-57286
3904,-54823
3905,-54093
3906,-55444
3907,-58044
3908,-61491
3909,-63931
3910,-64512
3911,-63412
3912,-60872
3913,-57395
3914,-54854
3915,-54233
3916,-55689
3917,-58286
3918,-61704
3919,-64326
3920,-65220
3921,-64098
3922,-61647
3923,-57948
3924,-55131
3925,-54403
3926,-55740
3927,-58355
3928,-62043
3929,-64704
3930,-65112
3931,-64021
3932,-61227
3933,-57612
3934,-55137
3935,-54876
3936,-55849
3937,-58899
3938,-62626
3939,-65259
3940,-65902
3941,-64676
3942,-61861
3943,-58367
3944,-55732
3945,-55076
3946,-56156
3947,-58943
3948,-62410
3949,-65101
3950,-65714
3951,-64742
3952,-61995
3953,-58291
3954,-55818
3955,-55192
3956,-56582
3957,-59251
3958,-62769
3959,-65637
3960,-66113
3961,-64699
3962,-61959
3963,-58574
3964,-56329
3965,-55486
3966,-56701
3967,-59524
3968,-63216
3969,-65591
3970,-66062
3971,-65001
3972,-62683
3973,-59403
3974,-56611
3975,-55702
3976,-57174
3977,-59754
3978,-63137
3979,-66001
3980,-66862
3981,-65596
3982,-62985
3983,-59336
3984,-56711
3985,-56011
3986,-56792
3987,-59421
3988,-63242
3989,-66149
3990,-67136
3991,-65829
3992,-63544
3993,-59977
3994,-57235
3995,-56263
3996,-57216
3997,-59869
3998,-63682
3999,-66541
4000,-67173
4001,-65951
4002,-63227
4003,-59808
4004,-57133
4005,-56151
4006,-57166
4007,-60112
4008,-64082
4009,-66506
4010,-67233
4011,-66237
4012,-63831
4013,-60203
4014,-57479
4015,-56612
4016,-57730
4017,-60569
4018,-64436
4019,-67001
4020,-67634
4021,-66464
4022,-63551
4023,-59946
4024,-57537
4025,-56834
4026,-57837
4027,-60921
4028,-64350
4029,-66982
4030,-67828
4031,-66721
4032,-63959
4033,-60682
4034,-58209
4035,-57169
4036,-58244
4037,-60826
4038,-64449
4039,-67162
4040,-68064
4041,-66699
4042,-63899
4043,-60296
4044,-57971
4045,-57484
4046,-58143
4047,-60897
4048,-65049
4049,-67929
4050,-68694
4051,-67329
4052,-64414
4053,-60866
4054,-58202
4055,-57306
4056,-58334
4057,-61074
4058,-64607
4059,-67386
4060,-68251
4061,-66942
4062,-64324
4063,-61065
4064,-58348
4065,-57424
4066,-58715
4067,-61507
4068,-65153
4069,-67797
4070,-68454
4071,-67157
4072,-64464
4073,-60744
4074,-58072
4075,-57241
4076,-58533
4077,-61367
4078,-64648
4079,-67321
4080,-68686
4081,-67443
4082,-64423
4083,-60662
4084,-57977
4085,-57504
4086,-58964
4087,-61401
4088,-64933
4089,-67782
4090,-68470
4091,-67062
4092,-64415
4093,-60963
4094,-58497
4095,-57589
4096,-58633
4097,-61359
4098,-64831
4099,-67752
4100,-68501
4101,-67222
4102,-64598
4103,-60904
4104,-58145
4105,-57393
4106,-58619
4107,-61239
4108,-64873
4109,-67909
4110,-68599
4111,-67043
4112,-64146
4113,-60763
4114,-58388
4115,-57356
4116,-58588
4117,-61562
4118,-65049
4119,-67722
4120,-68756
4121,-67314
4122,-64510
4123,-60954
4124,-58269
4125,-57487
4126,-58651
4127,-61498
4128,-64821
4129,-67816
4130,-68793
4131,-67622
4132,-64709
4133,-61269
4134,-58447
4135,-57645
4136,-58841
4137,-61712
4138,-65362
4139,-68048
4140,-69061
4141,-67953
4142,-65297
4143,-61692
4144,-59015
4145,-58236
4146,-59374
4147,-62043
4148,-65440
4149,-68051
4150,-69059
4151,-68016
4152,-65428
4153,-61573
4154,-59023
4155,-58513
4156,-59509
4157,-62126
4158,-65734
4159,-68580
4160,-69301
4161,-67776
4162,-65039
4163,-61659
4164,-59055
4165,-58360
4166,-59505
4167,-62369
4168,-66177
4169,-68706
4170,-69084
4171,-68066
4172,-65058
4173,-61412
4174,-59073
4175,-58175
4176,-59442
4177,-62196
4178,-65655
4179,-68287
4180,-68920
4181,-67649
4182,-64891
4183,-61384
4184,-58729
4185,-58274
4186,-59439
4187,-61872
4188,-65454
4189,-68539
4190,-69283
4191,-67858
4192,-65024
4193,-61416
4194,-58666
4195,-58063
4196,-59256
4197,-61898
4198,-65689
4199,-68456
4200,-68984
4201,-67701
4202,-65002
4203,-61454
4204,-58636
4205,-57793
4206,-59071
4207,-61801
4208,-65557
4209,-68529
4210,-69320
4211,-67928
4212,-64937
4213,-61309
4214,-58496
4215,-57781
4216,-59351
4217,-62085
4218,-65708
4219,-68275
4220,-68999
4221,-67917
4222,-65256
4223,-61839
4224,-58944
4225,-58212
4226,-59452
4227,-62196
4228,-65881
4229,-68513
4230,-69105
4231,-67814
4232,-65284
4233,-61389
4234,-58768
4235,-58317
4236,-59640
4237,-62427
4238,-65954
4239,-68591
4240,-69106
4241,-67774
4242,-65087
4243,-61691
4244,-58929
4245,-58069
4246,-59257
4247,-62402
4248,-66292
4249,-68849
4250,-68998
4251,-67861
4252,-65590
4253,-61994
4254,-59194
4255,-58417
4256,-59884
4257,-62797
4258,-66199
4259,-68510
4260,-69362
4261,-68213
4262,-65302
4263,-61780
4264,-59353
4265,-58614
4266,-59656
4267,-62408
4268,-66106
4269,-68644
4270,-69094
4271,-67840
4272,-65739
4273,-62221
4274,-59382
4275,-58542
4276,-59821
4277,-62811
4278,-66214
4279,-68602
4280,-69357
4281,-68405
4282,-65697
4283,-61936
4284,-59133
4285,-58448
4286,-59957
4287,-62607
4288,-66082
4289,-68616
4290,-69201
4291,-68106
4292,-65274
4293,-61629
4294,-58892
4295,-58019
4296,-59019
4297,-61699
4298,-65591
4299,-67931
4300,-68969
4301,-68112
4302,-65124
4303,-60963
4304,-57961
4305,-57239
4306,-58311
4307,-61098
4308,-64826
4309,-67357
4310,-67819
4311,-66426
4312,-63798
4313,-60114
4314,-57522
4315,-56791
4316,-58131
4317,-60824
4318,-64124
4319,-66832
4320,-67538
4321,-66234
4322,-63464
4323,-60101
4324,-57554
4325,-56763
4326,-57778
4327,-60659
4328,-64147
4329,-66721
4330,-67893
4331,-66486
4332,-63657
4333,-60312
4334,-57856
4335,-57057
4336,-58094
4337,-60885
4338,-64295
4339,-66886
4340,-67731
4341,-66609
4342,-64048
4343,-60624
4344,-58002
4345,-57319
4346,-58394
4347,-61090
4348,-64679
4349,-67559
4350,-68559
4351,-67167
4352,-64419
4353,-61004
4354,-58739
4355,-58315
4356,-59574
4357,-62250
4358,-65814
4359,-68506
4360,-69187
4361,-67754
4362,-65167
4363,-61958
4364,-59685
4365,-58931
4366,-60241
4367,-63027
4368,-66433
4369,-68873
4370,-69514
4371,-68174
4372,-65449
4373,-61912
4374,-59545
4375,-59096
4376,-60182
4377,-62531
4378,-66147
4379,-68669
4380,-69409
4381,-68129
4382,-65451
4383,-61986
4384,-59372
4385,-58649
4386,-59819
4387,-62628
4388,-65581
4389,-68096
4390,-69087
4391,-67440
4392,-64317
4393,-61062
4394,-58854
4395,-58404
4396,-59507
4397,-62076
4398,-65565
4399,-68113
4400,-68742
4401,-67206
4402,-64269
4403,-60919
4404,-58491
4405,-57746
4406,-59197
4407,-61562
4408,-65024
4409,-67732
4410,-68081
4411,-66806
4412,-64357
4413,-60799
4414,-57802
4415,-57149
4416,-59060
4417,-62042
4418,-65554
4419,-68049
4420,-68465
4421,-67029
4422,-64387
4423,-61143
4424,-58639
4425,-58122
4426,-59111
4427,-61826
4428,-65208
4429,-67615
4430,-68027
4431,-66590
4432,-63846
4433,-60582
4434,-58184
4435,-57596
4436,-58624
4437,-61221
4438,-64617
4439,-67225
4440,-68061
4441,-66616
4442,-63826
4443,-60611
4444,-58152
4445,-57352
4446,-58761
4447,-61301
4448,-64641
4449,-67109
4450,-67651
4451,-66454
4452,-63547
4453,-60138
4454,-57757
4455,-57137
4456,-58219
4457,-61032
4458,-64772
4459,-67567
4460,-68123
4461,-66677
4462,-63834
4463,-60087
4464,-57668
4465,-57375
4466,-58467
4467,-61229
4468,-64531
4469,-66979
4470,-68166
4471,-67048
4472,-63637
4473,-60038
4474,-57981
4475,-57254
4476,-58630
4477,-61389
4478,-64842
4479,-67565
4480,-68192
4481,-66772
4482,-63954
4483,-60447
4484,-57894
4485,-57331
4486,-58761
4487,-61453
4488,-64904
4489,-67214
4490,-67747
4491,-66347
4492,-63537
4493,-60066
4494,-57758
4495,-57106
4496,-58231
4497,-61169
4498,-64689
4499,-66896
4500,-67437
4501,-66271
4502,-63606
4503,-59961
4504,-57300
4505,-56613
4506,-58236
4507,-61267
4508,-64818
4509,-66989
4510,-67513
4511,-65982
4512,-63010
4513,-59549
4514,-57531
4515,-56840
4516,-57962
4517,-60670
4518,-64196
4519,-66642
4520,-67131
4521,-65582
4522,-63200
4523,-59991
4524,-57173
4525,-56524
4526,-57997
4527,-60544
4528,-63983
4529,-66410
4530,-66841
4531,-65641
4532,-62832
4533,-59209
4534,-56806
4535,-56225
4536,-57571
4537,-60481
4538,-63925
4539,-65889
4540,-66367
4541,-65569
4542,-62902
4543,-59231
4544,-57054
4545,-56216
4546,-57366
4547,-59922
4548,-63480
4549,-66174
4550,-66811
4551,-65635
4552,-62944
4553,-59502
4554,-56961
4555,-56242
4556,-57466
4557,-60266
4558,-63664
4559,-66081
4560,-66657
4561,-65363
4562,-62693
4563,-59341
4564,-57005
4565,-56416
4566,-57661
4567,-60386
4568,-63675
4569,-66234
4570,-66999
4571,-65470
4572,-62509
4573,-59412
4574,-57122
4575,-56175
4576,-57271
4577,-60236
4578,-64362
4579,-66903
4580,-67089
4581,-65482
4582,-62747
4583,-59434
4584,-56957
4585,-56209
4586,-57583
4587,-59963
4588,-63308
4589,-66411
4590,-66872
4591,-65744
4592,-62997
4593,-59609
4594,-56893
4595,-55794
4596,-57155
4597,-59934
4598,-63554
4599,-66210
4600,-66409
4601,-64988
4602,-62370
4603,-59075
4604,-56678
4605,-56252
4606,-57304
4607,-59889
4608,-63414
4609,-65751
4610,-66134
4611,-64918
4612,-62474
4613,-59044
4614,-56643
4615,-56124
4616,-57376
4617,-59999
4618,-63305
4619,-65689
4620,-66282
4621,-64852
4622,-62174
4623,-58871
4624,-56334
4625,-55800
4626,-57179
4627,-59852
4628,-63115
4629,-65726
4630,-66413
4631,-64831
4632,-62228
4633,-58842
4634,-56607
4635,-56106
4636,-56917
4637,-59149
4638,-62801
4639,-65926
4640,-66456
4641,-65527
4642,-62662
4643,-59206
4644,-56715
4645,-56288
4646,-57871
4647,-60312
4648,-63721
4649,-66177
4650,-66556
4651,-65238
4652,-62874
4653,-59236
4654,-56749
4655,-56332
4656,-57295
4657,-59749
4658,-63174
4659,-65823
4660,-66510
4661,-65246
4662,-62378
4663,-59021
4664,-56859
4665,-56147
4666,-57139
4667,-59816
4668,-63194
4669,-65456
4670,-66062
4671,-64796
4672,-61780
4673,-58545
4674,-56335
4675,-55895
4676,-57064
4677,-59724
4678,-63222
4679,-65605
4680,-66102
4681,-64995
4682,-62358
4683,-58709
4684,-56141
4685,-55504
4686,-56685
4687,-59822
4688,-63062
4689,-65144
4690,-65674
4691,-64512
4692,-61904
4693,-58558
4694,-55773
4695,-55379
4696,-56844
4697,-59547
4698,-62854
4699,-65030
4700,-65316
4701,-64149
4702,-61680
4703,-58076
4704,-55780
4705,-55519
4706,-56649
4707,-59222
4708,-62046
4709,-64416
4710,-65461
4711,-64125
4712,-61517
4713,-58050
4714,-55712
4715,-55133
4716,-56347
4717,-58983
4718,-62422
4719,-64714
4720,-64846
4721,-63591
4722,-61425
4723,-58204
4724,-55731
4725,-55013
4726,-56091
4727,-58945
4728,-62447
4729,-64911
4730,-65151
4731,-63612
4732,-60927
4733,-57779
4734,-55517
4735,-54972
4736,-56229
4737,-58635
4738,-61887
4739,-64373
4740,-64822
4741,-63612
4742,-61029
4743,-57612
4744,-55286
4745,-54734
4746,-56042
4747,-58930
4748,-62326
4749,-64262
4750,-64365
4751,-63076
4752,-60832
4753,-57642
4754,-55143
4755,-54647
4756,-55989
4757,-58673
4758,-62006
4759,-64446
4760,-64921
4761,-63566
4762,-60828
4763,-57653
4764,-55058
4765,-54387
4766,-55727
4767,-58671
4768,-61916
4769,-64184
4770,-64782
4771,-63292
4772,-60144
4773,-56756
4774,-54457
4775,-54204
4776,-56216
4777,-58662
4778,-61854
4779,-64546
4780,-64804
4781,-63232
4782,-60316
4783,-57046
4784,-54998
4785,-54472
4786,-55644
4787,-58183
4788,-61639
4789,-64204
4790,-64409
4791,-63016
4792,-60415
4793,-57316
4794,-54765
4795,-54204
4796,-55476
4797,-58098
4798,-61336
4799,-63820
4800,-64086
4801,-62276
4802,-59952
4803,-57074
4804,-54880
4805,-54471
4806,-55616
4807,-58134
4808,-61437
4809,-63909
4810,-64472
4811,-62932
4812,-59877
4813,-56592
4814,-54136
4815,-53862
4816,-55376
4817,-58305
4818,-61737
4819,-63839
4820,-64091
4821,-62713
4822,-60111
4823,-56733
4824,-54366
4825,-53862
4826,-55174
4827,-57810
4828,-61100
4829,-63556
4830,-63989
4831,-62321
4832,-59432
4833,-56215
4834,-54620
4835,-54253
4836,-55032
4837,-57531
4838,-61011
4839,-63453
4840,-64064
4841,-62673
4842,-59782
4843,-56481
4844,-54093
4845,-53636
4846,-55050
4847,-57677
4848,-60967
4849,-63246
4850,-63710
4851,-62317
4852,-59660
4853,-56287
4854,-54229
4855,-53619
4856,-54752
4857,-57536
4858,-60911
4859,-63172
4860,-63562
4861,-62589
4862,-59632
4863,-56036
4864,-53804
4865,-53772
4866,-55132
4867,-57703
4868,-61063
4869,-63402
4870,-63857
4871,-62407
4872,-59661
4873,-56281
4874,-54005
4875,-53433
4876,-54356
4877,-56684
4878,-60174
4879,-63346
4880,-64246
4881,-62724
4882,-59732
4883,-56252
4884,-53956
4885,-53443
4886,-54678
4887,-57422
4888,-60643
4889,-62862
4890,-63515
4891,-62230
4892,-59462
4893,-55976
4894,-53634
4895,-52923
4896,-54197
4897,-57231
4898,-60931
4899,-63193
4900,-63289
4901,-61887
4902,-59217
4903,-56010
4904,-53545
4905,-53062
4906,-54669
4907,-57414
4908,-60352
4909,-62501
4910,-62907
4911,-61829
4912,-59224
4913,-55794
4914,-53439
4915,-52511
4916,-53731
4917,-56960
4918,-60447
4919,-62396
4920,-62911
4921,-61891
4922,-58987
4923,-55724
4924,-53239
4925,-52712
4926,-54036
4927,-56661
4928,-60399
4929,-62686
4930,-62844
4931,-61497
4932,-58814
4933,-55430
4934,-53251
4935,-52499
4936,-53816
4937,-56562
4938,-59809
4939,-61984
4940,-62274
4941,-60979
4942,-58629
4943,-55382
4944,-53199
4945,-52892
4946,-53949
4947,-56977
4948,-60078
4949,-62124
4950,-62400
4951,-61107
4952,-58771
4953,-55341
4954,-52797
4955,-52208
4956,-53525
4957,-56541
4958,-59905
4959,-62184
4960,-62499
4961,-61276
4962,-58601
4963,-55429
4964,-52810
4965,-52402
4966,-53902
4967,-56350
4968,-59370
4969,-61689
4970,-62478
4971,-60777
4972,-58237
4973,-54932
4974,-52651
4975,-52083
4976,-53608
4977,-56219
4978,-59083
4979,-61639
4980,-62614
4981,-61562
4982,-58462
4983,-54827
4984,-52447
4985,-52045
4986,-53440
4987,-56212
4988,-59161
4989,-61484
4990,-62308
4991,-60779
4992,-57977
4993,-55077
4994,-52694
4995,-52082
4996,-53120
4997,-55704
4998,-59041
4999,-61549
5000,-61778
5001,-60146
5002,-57694
5003,-54542
5004,-52222
5005,-51729
5006,-53083
5007,-56054
5008,-59154
5009,-61219
5010,-61674
5011,-60112
5012,-57495
5013,-54369
5014,-52191
5015,-51662
5016,-53014
5017,-55709
5018,-58643
5019,-60687
5020,-61346
5021,-60419
5022,-57679
5023,-54364
5024,-51924
5025,-51547
5026,-52577
5027,-55233
5028,-59172
5029,-61424
5030,-61822
5031,-60471
5032,-57686
5033,-54447
5034,-52029
5035,-51417
5036,-52745
5037,-55394
5038,-58924
5039,-61292
5040,-61957
5041,-60266
5042,-57643
5043,-54554
5044,-52241
5045,-51724
5046,-53064
5047,-55634
5048,-58843
5049,-61289
5050,-61931
5051,-60836
5052,-57923
5053,-54147
5054,-51754
5055,-51434
5056,-52902
5057,-55564
5058,-58865
5059,-61249
5060,-61414
5061,-60120
5062,-57556
5063,-54425
5064,-51910
5065,-51271
5066,-52705
5067,-55579
5068,-58665
5069,-60809
5070,-61304
5071,-59999
5072,-57123
5073,-53969
5074,-51880
5075,-51168
5076,-52407
5077,-55132
5078,-58522
5079,-60452
5080,-60795
5081,-59807
5082,-57317
5083,-53832
5084,-51489
5085,-50714
5086,-52691
5087,-55239
5088,-58176
5089,-60521
5090,-60959
5091,-59556
5092,-57019
5093,-53944
5094,-51509
5095,-50780
5096,-52477
5097,-55106
5098,-58187
5099,-60419
5100,-60716
5101,-59757
5102,-57204
5103,-53412
5104,-50959
5105,-50634
5106,-52551
5107,-55228
5108,-58283
5109,-60824
5110,-61219
5111,-59901
5112,-57239
5113,-54024
5114,-51816
5115,-51235
5116,-52229
5117,-54915
5118,-58223
5119,-60791
5120,-61024
5121,-60044
5122,-57375
5123,-53746
5124,-51234
5125,-51041
5126,-52474
5127,-54954
5128,-57785
5129,-60176
5130,-60733
5131,-59651
5132,-57074
5133,-54124
5134,-51769
5135,-51209
5136,-52436
5137,-55064
5138,-58234
5139,-60744
5140,-61144
5141,-59621
5142,-56989
5143,-53682
5144,-51620
5145,-51263
5146,-52363
5147,-55136
5148,-58397
5149,-60231
5150,-60769
5151,-59847
5152,-57397
5153,-54524
5154,-51947
5155,-51392
5156,-52494
5157,-54787
5158,-57854
5159,-60639
5160,-61394
5161,-59868
5162,-57159
5163,-53706
5164,-51520
5165,-51159
5166,-52462
5167,-55056
5168,-58723
5169,-60632
5170,-61034
5171,-59715
5172,-56828
5173,-54064
5174,-51891
5175,-51059
5176,-52402
5177,-55260
5178,-58348
5179,-60527
5180,-60829
5181,-59636
5182,-56938
5183,-53424
5184,-51209
5185,-51094
5186,-52310
5187,-54872
5188,-57912
5189,-60086
5190,-60306
5191,-59473
5192,-56789
5193,-53215
5194,-50715
5195,-50557
5196,-51772
5197,-54833
5198,-58063
5199,-59541
5200,-60099
5201,-58964
5202,-56450
5203,-53214
5204,-50874
5205,-50386
5206,-51539
5207,-54124
5208,-57362
5209,-59691
5210,-59824
5211,-58499
5212,-55939
5213,-52950
5214,-50689
5215,-50011
5216,-51180
5217,-53859
5218,-57113
5219,-59423
5220,-59464
5221,-58110
5222,-55793
5223,-53027
5224,-50481
5225,-49902
5226,-51407
5227,-53863
5228,-57183
5229,-59384
5230,-59787
5231,-58529
5232,-55825
5233,-52644
5234,-50331
5235,-49998
5236,-51193
5237,-53732
5238,-56861
5239,-59117
5240,-59770
5241,-58449
5242,-55574
5243,-52365
5244,-50222
5245,-49973
5246,-51209
5247,-53613
5248,-56724
5249,-59081
5250,-59939
5251,-59014
5252,-56102
5253,-52616
5254,-50354
5255,-49827
5256,-51058
5257,-53810
5258,-57134
5259,-59215
5260,-59509
5261,-58421
5262,-55817
5263,-52427
5264,-49880
5265,-49677
5266,-51215
5267,-53847
5268,-56992
5269,-59550
5270,-59972
5271,-58452
5272,-55520
5273,-52332
5274,-50421
5275,-50085
5276,-50896
5277,-53042
5278,-56441
5279,-59557
5280,-60220
5281,-58512
5282,-55576
5283,-52546
5284,-50593
5285,-49934
5286,-50856
5287,-53459
5288,-56645
5289,-59558
5290,-59862
5291,-58241
5292,-55544
5293,-52522
5294,-50099
5295,-49721
5296,-51088
5297,-53898
5298,-57328
5299,-59457
5300,-59829
5301,-58522
5302,-55884
5303,-52606
5304,-50139
5305,-49566
5306,-50776
5307,-53808
5308,-57084
5309,-59057
5310,-59400
5311,-58254
5312,-55691
5313,-52392
5314,-50048
5315,-49687
5316,-51107
5317,-53693
5318,-56841
5319,-59282
5320,-59576
5321,-57971
5322,-55440
5323,-52381
5324,-49991
5325,-49226
5326,-50582
5327,-53704
5328,-56993
5329,-59249
5330,-59639
5331,-58040
5332,-55337
5333,-52031
5334,-49829
5335,-49698
5336,-51219
5337,-53731
5338,-56914
5339,-59176
5340,-59703
5341,-58158
5342,-55305
5343,-52222
5344,-50012
5345,-49632
5346,-51063
5347,-53681
5348,-56766
5349,-59147
5350,-59587
5351,-58102
5352,-55804
5353,-52180
5354,-50033
5355,-49807
5356,-51052
5357,-53534
5358,-56612
5359,-58969
5360,-59682
5361,-58661
5362,-55851
5363,-52450
5364,-49769
5365,-49397
5366,-50679
5367,-53404
5368,-56829
5369,-58882
5370,-59072
5371,-58087
5372,-55616
5373,-52404
5374,-50068
5375,-49389
5376,-50674
5377,-53463
5378,-56747
5379,-59065
5380,-59455
5381,-57943
5382,-54871
5383,-51521
5384,-49601
5385,-49524
5386,-50930
5387,-53486
5388,-56467
5389,-58769
5390,-59648
5391,-57925
5392,-54778
5393,-51634
5394,-49203
5395,-48817
5396,-50018
5397,-53540
5398,-57419
5399,-58978
5400,-58721
5401,-57673
5402,-55319
5403,-52070
5404,-49701
5405,-49158
5406,-50295
5407,-53098
5408,-56356
5409,-58579
5410,-58856
5411,-57558
5412,-55129
5413,-51601
5414,-49237
5415,-48993
5416,-50340
5417,-52988
5418,-56232
5419,-58416
5420,-58777
5421,-57463
5422,-54712
5423,-51495
5424,-49262
5425,-48843
5426,-50206
5427,-52957
5428,-56190
5429,-58394
5430,-58856
5431,-57508
5432,-54526
5433,-51032
5434,-49086
5435,-48437
5436,-49747
5437,-53031
5438,-56373
5439,-58292
5440,-58905
5441,-58097
5442,-55301
5443,-51621
5444,-49292
5445,-48832
5446,-50094
5447,-52920
5448,-56372
5449,-58723
5450,-59004
5451,-57603
5452,-54901
5453,-51635
5454,-49382
5455,-48931
5456,-50336
5457,-53066
5458,-56027
5459,-58162
5460,-59183
5461,-58072
5462,-55073
5463,-51840
5464,-49504
5465,-49064
5466,-50419
5467,-53166
5468,-56402
5469,-58622
5470,-58968
5471,-57628
5472,-54928
5473,-51742
5474,-49472
5475,-48995
5476,-50158
5477,-52952
5478,-56477
5479,-58714
5480,-58857
5481,-57682
5482,-55221
5483,-51879
5484,-49407
5485,-48928
5486,-50516
5487,-53258
5488,-56457
5489,-58849
5490,-59226
5491,-57979
5492,-55015
5493,-51635
5494,-49647
5495,-49257
5496,-50454
5497,-53289
5498,-56617
5499,-58790
5500,-59092
5501,-57507
5502,-54525
5503,-51217
5504,-49067
5505,-49751
5506,-50989
5507,-53377
5508,-56554
5509,-58774
5510,-59067
5511,-57752
5512,-55072
5513,-51664
5514,-49394
5515,-49137
5516,-50424
5517,-53142
5518,-56492
5519,-58593
5520,-58816
5521,-57598
5522,-55026
5523,-51405
5524,-49161
5525,-49098
5526,-50841
5527,-53096
5528,-56351
5529,-58689
5530,-59047
5531,-57654
5532,-54822
5533,-51507
5534,-49179
5535,-48673
5536,-49979
5537,-52955
5538,-56483
5539,-58678
5540,-59071
5541,-57819
5542,-55076
5543,-51648
5544,-49326
5545,-48933
5546,-50235
5547,-52699
5548,-56006
5549,-58528
5550,-59027
5551,-57771
5552,-54770
5553,-51442
5554,-49224
5555,-48975
5556,-50166
5557,-52766
5558,-56244
5559,-58720
5560,-59126
5561,-57591
5562,-54492
5563,-51184
5564,-49161
5565,-48852
5566,-50114
5567,-52673
5568,-55982
5569,-58526
5570,-58832
5571,-57354
5572,-54522
5573,-51117
5574,-48911
5575,-48231
5576,-49840
5577,-52699
5578,-56233
5579,-58601
5580,-58912
5581,-57517
5582,-54801
5583,-51626
5584,-49461
5585,-49209
5586,-50776
5587,-53121
5588,-56232
5589,-58428
5590,-58348
5591,-56686
5592,-54224
5593,-50976
5594,-50806
5595,-51727
5596,-52675
5597,-55309
5598,-58355
5599,-61329
5600,-61223
5601,-57171
5602,-52298
5603,-49301
5604,-48481
5605,-48766
5606,-50539
5607,-53271
5608,-56474
5609,-58450
5610,-58786
5611,-57784
5612,-55174
5613,-52021
5614,-49821
5615,-49621
5616,-51462
5617,-53928
5618,-57215
5619,-60352
5620,-61260
5621,-59727
5622,-56176
5623,-51710
5624,-50209
5625,-50874
5626,-50021
5627,-53357
5628,-55750
5629,-58133
5630,-58739
5631,-57078
5632,-54416
5633,-50642
5634,-48637
5635,-49023
5636,-50374
5637,-53074
5638,-56712
5639,-59644
5640,-59934
5641,-57837
5642,-54347
5643,-51075
5644,-48903
5645,-49068
5646,-51904
5647,-55538
5648,-58219
5649,-60772
5650,-61522
5651,-60317
5652,-55938
5653,-51379
5654,-49906
5655,-50034
5656,-51327
5657,-55072
5658,-61286
5659,-63502
5660,-59222
5661,-55095
5662,-56102
5663,-53586
5664,-48522
5665,-46011
5666,-47705
5667,-52589
5668,-57199
5669,-60138
5670,-60203
5671,-57641
5672,-55061
5673,-53025
5674,-51104
5675,-49671
5676,-50716
5677,-54034
5678,-57070
5679,-58040
5680,-57709
5681,-57451
5682,-56236
5683,-53260
5684,-50722
5685,-50118
5686,-51423
5687,-53918
5688,-57137
5689,-59759
5690,-60064
5691,-58362
5692,-55349
5693,-52029
5694,-50010
5695,-49951
5696,-51772
5697,-54779
5698,-58463
5699,-60306
5700,-59744
5701,-57796
5702,-55296
5703,-55090
5704,-53516
5705,-51398
5706,-52369
5707,-55927
5708,-58517
5709,-58122
5710,-58847
5711,-60284
5712,-57496
5713,-51376
5714,-49201
5715,-50272
5716,-50776
5717,-51867
5718,-57410
5719,-61188
5720,-62447
5721,-60134
5722,-55956
5723,-53163
5724,-51271
5725,-52048
5726,-53709
5727,-56461
5728,-59920
5729,-61738
5730,-62252
5731,-61419
5732,-59166
5733,-55467
5734,-52784
5735,-51436
5736,-52686
5737,-55164
5738,-58862
5739,-62699
5740,-64327
5741,-62344
5742,-59351
5743,-54621
5744,-50717
5745,-51171
5746,-50674
5747,-52741
5748,-57456
5749,-61394
5750,-62071
5751,-60664
5752,-57929
5753,-56092
5754,-58377
5755,-55854
5756,-53277
5757,-54274
5758,-55594
5759,-59194
5760,-60406
5761,-58997
5762,-57749
5763,-55343
5764,-53527
5765,-53696
5766,-55434
5767,-58214
5768,-61429
5769,-62574
5770,-61166
5771,-59738
5772,-57933
5773,-54393
5774,-52517
5775,-52927
5776,-55162
5777,-58006
5778,-59762
5779,-59687
5780,-60621
5781,-60327
5782,-56888
5783,-54996
5784,-52426
5785,-51462
5786,-53086
5787,-56954
5788,-60134
5789,-61339
5790,-61355
5791,-62183
5792,-60172
5793,-55577
5794,-51225
5795,-51373
5796,-53949
5797,-57150
5798,-60180
5799,-62487
5800,-61583
5801,-60426
5802,-59279
5803,-56471
5804,-51107
5805,-49689
5806,-51622
5807,-55546
5808,-59408
5809,-61007
5810,-63114
5811,-63024
5812,-60342
5813,-55461
5814,-51444
5815,-49694
5816,-50764
5817,-52383
5818,-55787
5819,-60974
5820,-63221
5821,-60777
5822,-57927
5823,-54847
5824,-53617
5825,-55174
5826,-55117
5827,-56654
5828,-59661
5829,-61217
5830,-60377
5831,-58522
5832,-56869
5833,-56399
5834,-54768
5835,-52643
5836,-52567
5837,-56848
5838,-62528
5839,-63614
5840,-62497
5841,-60234
5842,-58379
5843,-54317
5844,-51035
5845,-50047
5846,-50244
5847,-52944
5848,-56973
5849,-58964
5850,-59432
5851,-59602
5852,-57801
5853,-54044
5854,-52051
5855,-51813
5856,-53396
5857,-55968
5858,-58936
5859,-59726
5860,-60091
5861,-60629
5862,-57311
5863,-52668
5864,-51299
5865,-53534
5866,-55730
5867,-58276
5868,-59773
5869,-60712
5870,-62393
5871,-62079
5872,-59381
5873,-54497
5874,-54361
5875,-55511
5876,-54898
5877,-57055
5878,-59251
5879,-60967
5880,-60159
5881,-58127
5882,-56291
5883,-54792
5884,-51806
5885,-50309
5886,-55085
5887,-59697
5888,-61595
5889,-63108
5890,-64614
5891,-64097
5892,-59895
5893,-55131
5894,-50739
5895,-50012
5896,-50424
5897,-50830
5898,-55220
5899,-60621
5900,-62716
5901,-59870
5902,-55329
5903,-51069
5904,-49539
5905,-49911
5906,-50931
5907,-54535
5908,-58351
5909,-57552
5910,-57512
5911,-56852
5912,-54286
5913,-51791
5914,-49748
5915,-49487
5916,-51311
5917,-54815
5918,-57072
5919,-58463
5920,-60295
5921,-62449
5922,-59742
5923,-57816
5924,-55708
5925,-54436
5926,-53050
5927,-52019
5928,-53122
5929,-55171
5930,-53474
5931,-61831
5932,-59317
5933,-51786
5934,-50881
5935,-50472
5936,-52216
5937,-56090
5938,-60012
5939,-43867
5940,-5397
5941,-21199
5942,-56912
5943,-53361
5944,-52231
5945,-50809
5946,-51783
5947,-54294
5948,-62577
5949,-41732
5950,-3456
5951,-19087
5952,-54648
5953,-53923
5954,-49884
5955,-46358
5956,-45127
5957,-48273
5958,-52422
5959,-37736
5960,-4185
5961,-18892
5962,-53820
5963,-50702
5964,-50113
5965,-50366
5966,-47850
5967,-49060
5968,-52982
5969,-39682
5970,-4862
5971,-21243
5972,-60546
5973,-57694
5974,-56139
5975,-54102
5976,-51989
5977,-52365
5978,-53891
5979,-43683
5980,-6228
5981,-19036
5982,-54124
5983,-49467
5984,-46744
5985,-49299
5986,-52054
5987,-53384
5988,-59831
5989,-54006
5990,-9669
5991,-22315
5992,-59466
5993,-53686
5994,-51526
5995,-53218
5996,-53881
5997,-54434
5998,-57112
5999,-51166
6000,-10618
6001,-25128
6002,-73204
6003,-69944
6004,-60881
6005,-55329
6006,-54051
6007,-56938
6008,-59893
6009,-55200
6010,-12241
6011,-22274
6012,-63439
6013,-60616
6014,-56604
6015,-52502
6016,-51271
6017,-55001
6018,-61577
6019,-60982
6020,-14801
6021,-22155
6022,-60005
6023,-53902
6024,-50302
6025,-52977
6026,-56168
6027,-57246
6028,-59011
6029,-54207
6030,-13009
6031,-21408
6032,-61031
6033,-57348
6034,-53788
6035,-55901
6036,-62104
6037,-68799
6038,-73771
6039,-64662
6040,-13190
6041,-18691
6042,-53257
6043,-48449
6044,-50623
6045,-54101
6046,-51551
6047,-48021
6048,-48592
6049,-51614
6050,-13274
6051,-21634
6052,-57569
6053,-52824
6054,-52712
6055,-49984
6056,-45702
6057,-48646
6058,-54453
6059,-59310
6060,-27647
6061,-34836
6062,-63184
6063,-52991
6064,-48475
6065,-46759
6066,-48956
6067,-50817
6068,-55667
6069,-68919
6070,-72909
6071,-69207
6072,-58711
6073,-49706
6074,-58940
6075,-64119
6076,-65006
6077,-66057
6078,-67996
6079,-72348
6080,-84610
6081,-83271
6082,-69274
6083,-60607
6084,-61388
6085,-64903
6086,-66298
6087,-66792
6088,-68867
6089,-72282
6090,-74106
6091,-71471
6092,-69688
6093,-72032
6094,-68518
6095,-59959
6096,-55204
6097,-58477
6098,-62282
6099,-66626
6100,-69621
6101,-70902
6102,-68740
6103,-65652
6104,-59161
6105,-57086
6106,-60104
6107,-63008
6108,-65167
6109,-68076
6110,-66251
6111,-63131
6112,-61431
6113,-59101
6114,-57285
6115,-57299
6116,-59937
6117,-63849
6118,-67465
6119,-66557
6120,-64311
6121,-64096
6122,-61559
6123,-58155
6124,-55973
6125,-59847
6126,-64553
6127,-62365
6128,-60064
6129,-61951
6130,-67130
6131,-67962
6132,-66356
6133,-63739
6134,-58564
6135,-55102
6136,-57012
6137,-59579
6138,-62531
6139,-65229
6140,-65824
6141,-65447
6142,-60850
6143,-55969
6144,-52998
6145,-53339
6146,-54545
6147,-56436
6148,-61721
6149,-66861
6150,-70249
6151,-67268
6152,-64629
6153,-59782
6154,-51977
6155,-50626
6156,-51442
6157,-53525
6158,-51802
6159,-53987
6160,-58949
6161,-59011
6162,-54336
6163,-54262
6164,-55869
6165,-55848
6166,-51826
6167,-49716
6168,-51034
6169,-55004
6170,-54542
6171,-52941
6172,-50242
6173,-46922
6174,-47831
6175,-52519
6176,-55561
6177,-54810
6178,-49716
6179,-50353
6180,-55511
6181,-55944
6182,-52302
6183,-48241
6184,-44979
6185,-45902
6186,-48184
6187,-48508
6188,-49129
6189,-51111
6190,-52282
6191,-50507
6192,-48082
6193,-47045
6194,-41603
6195,-39517
6196,-40157
6197,-44316
6198,-52395
6199,-61296
6200,-62644
6201,-56199
6202,-44596
6203,-40906
6204,-45020
6205,-49191
6206,-53759
6207,-61337
6208,-71624
6209,-84525
6210,-88530
6211,-85541
6212,-80271
6213,-71582
6214,-65699
6215,-68782
6216,-76437
6217,-81352
6218,-80394
6219,-75527
6220,-73621
6221,-77336
6222,-75051
6223,-71412
6224,-70908
6225,-72122
6226,-69620
6227,-66615
6228,-68337
6229,-71116
6230,-70487
6231,-69835
6232,-71247
6233,-70778
6234,-68054
6235,-70176
6236,-70129
6237,-66089
6238,-67808
6239,-72186
6240,-72554
6241,-69353
6242,-65278
6243,-62282
6244,-64301
6245,-66927
6246,-64550
6247,-65029
6248,-68110
6249,-70078
6250,-69628
6251,-70637
6252,-70909
6253,-68739
6254,-65942
6255,-65504
6256,-68652
6257,-70086
6258,-73164
6259,-73725
6260,-73589
6261,-77298
6262,-79162
6263,-73590
6264,-64774
6265,-61542
6266,-67604
6267,-74506
6268,-71476
6269,-67286
6270,-67556
6271,-70981
6272,-71620
6273,-70195
6274,-65956
6275,-63469
6276,-63694
6277,-66387
6278,-71684
6279,-74777
6280,-75873
6281,-71690
6282,-59656
6283,-55306
6284,-55723
6285,-54893
6286,-56570
6287,-59462
6288,-61411
6289,-67849
6290,-71702
6291,-68314
6292,-63046
6293,-56203
6294,-53597
6295,-55395
6296,-58210
6297,-60580
6298,-62514
6299,-67409
6300,-69687
6301,-65187
6302,-59179
6303,-60592
6304,-58201
6305,-52653
6306,-48344
6307,-51849
6308,-59106
6309,-68155
6310,-68521
6311,-63450
6312,-56622
6313,-51717
6314,-49255
6315,-47566
6316,-51369
6317,-58589
6318,-62641
6319,-64612
6320,-65282
6321,-62169
6322,-55476
6323,-53197
6324,-50747
6325,-46305
6326,-47452
6327,-49437
6328,-50949
6329,-53340
6330,-55344
6331,-58097
6332,-55886
6333,-45227
6334,-41297
6335,-44953
6336,-42144
6337,-42625
6338,-45471
6339,-57975
6340,-67968
6341,-67736
6342,-66994
6343,-64136
6344,-60627
6345,-56950
6346,-56171
6347,-56221
6348,-59046
6349,-64966
6350,-69300
6351,-73554
6352,-76669
6353,-75308
6354,-69730
6355,-65673
6356,-66709
6357,-71441
6358,-77142
6359,-80811
6360,-76759
6361,-66794
6362,-66564
6363,-69450
6364,-67563
6365,-65280
6366,-65720
6367,-69193
6368,-74281
6369,-77621
6370,-78365
6371,-75849
6372,-67413
6373,-61532
6374,-61274
6375,-63411
6376,-65686
6377,-69952
6378,-74632
6379,-74181
6380,-70184
6381,-70141
6382,-70365
6383,-65406
6384,-65802
6385,-65203
6386,-66832
6387,-71337
6388,-69361
6389,-68556
6390,-69458
6391,-69471
6392,-69071
6393,-66408
6394,-63374
6395,-64067
6396,-62227
6397,-63888
6398,-71021
6399,-75906
6400,-75897
6401,-73276
6402,-70756
6403,-65756
6404,-62816
6405,-62012
6406,-63257
6407,-65515
6408,-68422
6409,-73434
6410,-76122
6411,-73179
6412,-63550
6413,-56499
6414,-55711
6415,-57464
6416,-60717
6417,-65416
6418,-70247
6419,-72397
6420,-75402
6421,-77084
6422,-72045
6423,-61632
6424,-58003
6425,-59790
6426,-61873
6427,-66011
6428,-71066
6429,-77033
6430,-79121
6431,-78251
6432,-70717
6433,-60968
6434,-57329
6435,-57326
6436,-59446
6437,-64571
6438,-70081
6439,-72312
6440,-75597
6441,-74566
6442,-68791
6443,-64184
6444,-62066
6445,-61651
6446,-63902
6447,-72372
6448,-74814
6449,-71012
6450,-73312
6451,-74981
6452,-70376
6453,-61437
6454,-57147
6455,-58309
6456,-61736
6457,-66817
6458,-73064
6459,-74981
6460,-70030
6461,-63054
6462,-63099
6463,-63903
6464,-61880
6465,-61561
6466,-61563
6467,-63363
6468,-68393
6469,-72844
6470,-74921
6471,-75554
6472,-67002
6473,-64922
6474,-65367
6475,-60284
6476,-56086
6477,-60493
6478,-67049
6479,-72951
6480,-74490
6481,-71292
6482,-67861
6483,-62387
6484,-57351
6485,-54598
6486,-56249
6487,-62804
6488,-71691
6489,-80469
6490,-78309
6491,-69657
6492,-64086
6493,-60258
6494,-59135
6495,-60665
6496,-61650
6497,-64072
6498,-67510
6499,-71235
6500,-75157
6501,-75235
6502,-69894
6503,-64690
6504,-60526
6505,-59595
6506,-62394
6507,-66136
6508,-68800
6509,-72664
6510,-74324
6511,-70736
6512,-66950
6513,-63816
6514,-65162
6515,-69037
6516,-69768
6517,-68589
6518,-66889
6519,-69117
6520,-72292
6521,-73203
6522,-71371
6523,-66986
6524,-65055
6525,-62542
6526,-63150
6527,-69183
6528,-75460
6529,-75650
6530,-73463
6531,-67790
6532,-61984
6533,-61035
6534,-63284
6535,-63990
6536,-66139
6537,-71109
6538,-74474
6539,-71939
6540,-71504
6541,-71656
6542,-68356
6543,-63292
6544,-63583
6545,-67029
6546,-66887
6547,-67150
6548,-70582
6549,-72466
6550,-71626
6551,-71154
6552,-68136
6553,-67144
6554,-65531
6555,-64807
6556,-63648
6557,-62139
6558,-64991
6559,-73032
6560,-78096
6561,-73111
6562,-65347
6563,-64474
6564,-65927
6565,-66498
6566,-63774
6567,-64834
6568,-70721
6569,-74765
6570,-75790
6571,-73655
6572,-70371
6573,-66926
6574,-63893
6575,-63581
6576,-64277
6577,-66476
6578,-70601
6579,-71035
6580,-68368
6581,-73414
6582,-73407
6583,-68342
6584,-64058
6585,-63046
6586,-64832
6587,-68067
6588,-71701
6589,-72930
6590,-73819
6591,-75200
6592,-67381
6593,-57730
6594,-58076
6595,-63425
6596,-63290
6597,-66628
6598,-72648
6599,-75693
6600,-74852
6601,-74966
6602,-73541
6603,-69810
6604,-65856
6605,-62892
6606,-62781
6607,-64565
6608,-69328
6609,-74058
6610,-75125
6611,-73142
6612,-71402
6613,-70643
6614,-65126
6615,-60191
6616,-62286
6617,-67299
6618,-66951
6619,-68549
6620,-74069
6621,-75150
6622,-71199
6623,-64324
6624,-59770
6625,-60804
6626,-62886
6627,-66092
6628,-70641
6629,-75607
6630,-77393
6631,-72872
6632,-69242
6633,-68624
6634,-65237
6635,-59201
6636,-61313
6637,-65462
6638,-69243
6639,-75459
6640,-76370
6641,-72737
6642,-69396
6643,-66797
6644,-65852
6645,-65346
6646,-65051
6647,-64629
6648,-67917
6649,-75100
6650,-77262
6651,-74451
6652,-68391
6653,-62968
6654,-60784
6655,-62761
6656,-65428
6657,-68146
6658,-71129
6659,-74369
6660,-76402
6661,-73352
6662,-72325
6663,-67268
6664,-60876
6665,-62641
6666,-67371
6667,-71091
6668,-76580
6669,-78191
6670,-72251
6671,-66892
6672,-66721
6673,-67005
6674,-64499
6675,-62577
6676,-63489
6677,-67645
6678,-72302
6679,-76207
6680,-75621
6681,-71332
6682,-69150
6683,-67589
6684,-64509
6685,-60597
6686,-60117
6687,-67945
6688,-71902
6689,-77015
6690,-81732
6691,-82358
6692,-73536
6693,-62946
6694,-57861
6695,-58593
6696,-61882
6697,-65689
6698,-71744
6699,-75797
6700,-77048
6701,-75942
6702,-72969
6703,-70671
6704,-65189
6705,-61738
6706,-63108
6707,-69399
6708,-74131
6709,-78751
6710,-79218
6711,-77906
6712,-75574
6713,-71612
6714,-58043
6715,-52469
6716,-59310
6717,-68149
6718,-73568
6719,-75653
6720,-75297
6721,-74622
6722,-72550
6723,-68109
6724,-64563
6725,-64115
6726,-64648
6727,-67377
6728,-73589
6729,-77501
6730,-75482
6731,-71358
6732,-71600
6733,-69903
6734,-66434
6735,-65909
6736,-69569
6737,-70992
6738,-68371
6739,-70108
6740,-74091
6741,-77211
6742,-72257
6743,-65688
6744,-64876
6745,-65266
6746,-66132
6747,-62172
6748,-61902
6749,-68944
6750,-76226
6751,-76213
6752,-72332
6753,-67996
6754,-66122
6755,-65645
6756,-64503
6757,-66176
6758,-70154
6759,-72029
6760,-72378
6761,-72657
6762,-70530
6763,-67790
6764,-65442
6765,-63722
6766,-64481
6767,-68589
6768,-69549
6769,-72667
6770,-72439
6771,-70453
6772,-68307
6773,-65828
6774,-62674
6775,-65234
6776,-69762
6777,-70697
6778,-69697
6779,-69928
6780,-69592
6781,-70280
6782,-70946
6783,-67504
6784,-64137
6785,-63009
6786,-66597
6787,-70758
6788,-71326
6789,-73254
6790,-73127
6791,-70236
6792,-70069
6793,-68439
6794,-64011
6795,-64181
6796,-68394
6797,-69559
6798,-67194
6799,-70586
6800,-77415
6801,-77325
6802,-67556
6803,-58003
6804,-61858
6805,-64784
6806,-64804
6807,-68028
6808,-71070
6809,-75830
6810,-79811
6811,-79949
6812,-71223
6813,-63259
6814,-61373
6815,-61793
6816,-62921
6817,-66012
6818,-72773
6819,-76939
6820,-77031
6821,-75949
6822,-72411
6823,-69819
6824,-64786
6825,-61078
6826,-64636
6827,-68269
6828,-72979
6829,-75037
6830,-74594
6831,-75137
6832,-73718
6833,-67812
6834,-63442
6835,-61334
6836,-63461
6837,-67734
6838,-71502
6839,-75254
6840,-76807
6841,-74651
6842,-71451
6843,-68389
6844,-65289
6845,-63384
6846,-64672
6847,-69382
6848,-73114
6849,-76042
6850,-76772
6851,-73574
6852,-70824
6853,-69707
6854,-69861
6855,-66923
6856,-62584
6857,-65410
6858,-70981
6859,-74654
6860,-76678
6861,-75461
6862,-68838
6863,-66982
6864,-64816
6865,-65383
6866,-65450
6867,-66546
6868,-71792
6869,-76488
6870,-77177
6871,-74197
6872,-69947
6873,-65831
6874,-64569
6875,-61827
6876,-62592
6877,-66802
6878,-71404
6879,-73826
6880,-74624
6881,-74378
6882,-71462
6883,-65127
6884,-62956
6885,-65854
6886,-68459
6887,-73400
6888,-73987
6889,-68910
6890,-70296
6891,-70459
6892,-66712
6893,-65484
6894,-66737
6895,-65282
6896,-61980
6897,-66341
6898,-71636
6899,-72065
6900,-74276
6901,-72759
6902,-68430
6903,-65951
6904,-63960
6905,-62126
6906,-63702
6907,-67456
6908,-70518
6909,-73341
6910,-76360
6911,-77832
6912,-74721
6913,-66799
6914,-60574
6915,-62041
6916,-64357
6917,-67528
6918,-69475
6919,-70718
6920,-73846
6921,-74061
6922,-70545
6923,-66501
6924,-66699
6925,-69836
6926,-64732
6927,-63747
6928,-67717
6929,-72765
6930,-73752
6931,-73868
6932,-70289
6933,-66739
6934,-66209
6935,-67191
6936,-68276
6937,-72164
6938,-73087
6939,-70599
6940,-71594
6941,-72769
6942,-68940
6943,-66777
6944,-68048
6945,-67747
6946,-67928
6947,-68989
6948,-69213
6949,-70214
6950,-70457
6951,-72176
6952,-71958
6953,-69811
6954,-66034
6955,-65122
6956,-68857
6957,-73201
6958,-73330
6959,-69606
6960,-70407
6961,-70547
6962,-69396
6963,-66972
6964,-64944
6965,-63905
6966,-65416
6967,-71522
6968,-78895
6969,-77795
6970,-70101
6971,-64910
6972,-66946
6973,-65772
6974,-63576
6975,-65612
6976,-66986
6977,-68630
6978,-71477
6979,-71826
6980,-73599
6981,-72656
6982,-70226
6983,-66974
6984,-64282
6985,-64896
6986,-65957
6987,-67792
6988,-69741
6989,-73914
6990,-76101
6991,-77454
6992,-73717
6993,-64681
6994,-60624
6995,-59573
6996,-63139
6997,-66947
6998,-70343
6999,-75130
7000,-77215
7001,-75706
7002,-72063
7003,-66501
7004,-62169
7005,-64459
7006,-67723
7007,-72332
7008,-76514
7009,-76073
7010,-72766
7011,-73329
7012,-72011
7013,-67511
7014,-67322
7015,-65635
7016,-64587
7017,-70759
7018,-72110
7019,-72972
7020,-74678
7021,-76219
7022,-74602
7023,-71216
7024,-68732
7025,-65443
7026,-64364
7027,-68322
7028,-72019
7029,-75659
7030,-77536
7031,-78802
7032,-75564
7033,-70996
7034,-66846
7035,-66241
7036,-67621
7037,-67447
7038,-71626
7039,-77070
7040,-77231
7041,-72663
7042,-68571
7043,-67973
7044,-65261
7045,-64511
7046,-65861
7047,-68863
7048,-73939
7049,-78018
7050,-79037
7051,-77993
7052,-75672
7053,-69024
7054,-63007
7055,-63655
7056,-64462
7057,-69306
7058,-73971
7059,-76919
7060,-78201
7061,-75752
7062,-71726
7063,-68110
7064,-66538
7065,-67094
7066,-70574
7067,-71666
7068,-70067
7069,-76959
7070,-78698
7071,-73814
7072,-74573
7073,-68324
7074,-63342
7075,-63466
7076,-61726
7077,-65638
7078,-73651
7079,-76916
7080,-74322
7081,-75987
7082,-74949
7083,-69191
7084,-63437
7085,-62410
7086,-63437
7087,-65329
7088,-72063
7089,-76037
7090,-77928
7091,-74576
7092,-70879
7093,-66797
7094,-66000
7095,-69019
7096,-68191
7097,-65266
7098,-67186
7099,-71381
7100,-76171
7101,-78146
7102,-76992
7103,-70901
7104,-61942
7105,-61422
7106,-67118
7107,-71503
7108,-73647
7109,-76356
7110,-72680
7111,-69641
7112,-70052
7113,-69294
7114,-66625
7115,-67530
7116,-70997
7117,-71919
7118,-74191
7119,-75236
7120,-73453
7121,-71582
7122,-71383
7123,-68829
7124,-67762
7125,-67454
7126,-66661
7127,-71870
7128,-71791
7129,-71859
7130,-74385
7131,-72786
7132,-71857
7133,-71171
7134,-67286
7135,-65621
7136,-68653
7137,-74597
7138,-78306
7139,-78519
7140,-73785
7141,-68876
7142,-71144
7143,-70690
7144,-70582
7145,-71594
7146,-74004
7147,-73170
7148,-74060
7149,-76837
7150,-77839
7151,-74446
7152,-70367
7153,-70590
7154,-71436
7155,-70896
7156,-69299
7157,-68876
7158,-72464
7159,-76819
7160,-78554
7161,-78479
7162,-76987
7163,-72622
7164,-67666
7165,-64712
7166,-63972
7167,-68528
7168,-73789
7169,-78913
7170,-80232
7171,-79981
7172,-74376
7173,-67296
7174,-64126
7175,-65304
7176,-66729
7177,-70517
7178,-73016
7179,-75091
7180,-73943
7181,-74254
7182,-74788
7183,-73962
7184,-69542
7185,-63087
7186,-64629
7187,-72362
7188,-80006
7189,-80468
7190,-73508
7191,-72304
7192,-71005
7193,-65244
7194,-60831
7195,-63431
7196,-67261
7197,-71146
7198,-78457
7199,-81810
7200,-76301
7201,-67867
7202,-67920
7203,-70439
7204,-68467
7205,-67530
7206,-69143
7207,-72609
7208,-74822
7209,-78685
7210,-80152
7211,-80432
7212,-77955
7213,-68897
7214,-62781
7215,-62096
7216,-66025
7217,-71083
7218,-75652
7219,-78972
7220,-75026
7221,-70817
7222,-70371
7223,-70415
7224,-67129
7225,-67376
7226,-69322
7227,-72276
7228,-76716
7229,-79393
7230,-78885
7231,-77076
7232,-70425
7233,-66418
7234,-63746
7235,-67173
7236,-73475
7237,-79254
7238,-77411
7239,-73681
7240,-72800
7241,-72222
7242,-73351
7243,-73287
7244,-67388
7245,-66641
7246,-72149
7247,-77627
7248,-77137
7249,-71107
7250,-73823
7251,-75611
7252,-72821
7253,-69186
7254,-69516
7255,-71162
7256,-72919
7257,-75507
7258,-78587
7259,-76996
7260,-74727
7261,-75627
7262,-72520
7263,-68162
7264,-66088
7265,-68250
7266,-72837
7267,-74686
7268,-75525
7269,-77021
7270,-77063
7271,-79152
7272,-77830
7273,-73011
7274,-69364
7275,-70702
7276,-71522
7277,-71290
7278,-70655
7279,-70259
7280,-73603
7281,-74654
7282,-71369
7283,-68709
7284,-69097
7285,-70207
7286,-70024
7287,-71856
7288,-76736
7289,-79502
7290,-73926
7291,-71782
7292,-71261
7293,-66977
7294,-67104
7295,-68153
7296,-67318
7297,-73155
7298,-82152
7299,-79444
7300,-75236
7301,-71261
7302,-69387
7303,-71384
7304,-69376
7305,-63362
7306,-60091
7307,-64240
7308,-70754
7309,-78637
7310,-81523
7311,-80683
7312,-79122
7313,-76272
7314,-69087
7315,-62847
7316,-61456
7317,-67841
7318,-72050
7319,-73736
7320,-77685
7321,-78589
7322,-76889
7323,-71857
7324,-67611
7325,-68082
7326,-69021
7327,-70491
7328,-76219
7329,-79967
7330,-80264
7331,-79852
7332,-76471
7333,-72084
7334,-67616
7335,-65069
7336,-69766
7337,-77366
7338,-81524
7339,-83670
7340,-79355
7341,-72694
7342,-69556
7343,-67204
7344,-65553
7345,-68169
7346,-71300
7347,-74422
7348,-80477
7349,-83896
7350,-83881
7351,-80561
7352,-77074
7353,-71397
7354,-69627
7355,-72200
7356,-74568
7357,-74966
7358,-79072
7359,-83691
7360,-83292
7361,-77311
7362,-76762
7363,-74097
7364,-69412
7365,-72188
7366,-75919
7367,-77338
7368,-75794
7369,-79947
7370,-80909
7371,-74847
7372,-72191
7373,-80990
7374,-82891
7375,-71755
7376,-67003
7377,-67934
7378,-76909
7379,-83484
7380,-82052
7381,-79027
7382,-76174
7383,-74022
7384,-72531
7385,-71437
7386,-70971
7387,-71942
7388,-76973
7389,-80876
7390,-82567
7391,-81816
7392,-78136
7393,-73804
7394,-70157
7395,-68307
7396,-70790
7397,-78550
7398,-83793
7399,-85853
7400,-84511
7401,-78796
7402,-71437
7403,-61508
7404,-57000
7405,-63579
7406,-70725
7407,-73197
7408,-76969
7409,-80321
7410,-80740
7411,-80222
7412,-77262
7413,-74714
7414,-72026
7415,-70917
7416,-70564
7417,-68789
7418,-73629
7419,-81903
7420,-85106
7421,-84829
7422,-79306
7423,-68000
7424,-66896
7425,-69874
7426,-71303
7427,-73284
7428,-75487
7429,-76417
7430,-77596
7431,-78463
7432,-76471
7433,-74139
7434,-73212
7435,-69322
7436,-70772
7437,-73306
7438,-74574
7439,-77349
7440,-78942
7441,-77131
7442,-74481
7443,-72108
7444,-68639
7445,-67032
7446,-70986
7447,-73426
7448,-75325
7449,-78096
7450,-79076
7451,-77216
7452,-73962
7453,-69827
7454,-69429
7455,-70881
7456,-72047
7457,-73773
7458,-76988
7459,-79047
7460,-79447
7461,-78396
7462,-72421
7463,-70503
7464,-67886
7465,-65197
7466,-68922
7467,-78204
7468,-79326
7469,-76149
7470,-80151
7471,-79747
7472,-75330
7473,-74749
7474,-72971
7475,-70680
7476,-70748
7477,-73863
7478,-75554
7479,-79587
7480,-79674
7481,-79697
7482,-78449
7483,-74435
7484,-71472
7485,-70018
7486,-67612
7487,-73587
7488,-78950
7489,-80111
7490,-82210
7491,-82879
7492,-78667
7493,-71084
7494,-70392
7495,-72444
7496,-70951
7497,-71674
7498,-76349
7499,-80223
7500,-83463
7501,-82827
7502,-77939
7503,-71553
7504,-69761
7505,-73027
7506,-73774
7507,-75406
7508,-78734
7509,-77771
7510,-76898
7511,-77761
7512,-78035
7513,-78699
7514,-77666
7515,-71020
7516,-66084
7517,-70097
7518,-76819
7519,-81412
7520,-82361
7521,-82158
7522,-78332
7523,-75902
7524,-71308
7525,-71122
7526,-73157
7527,-73830
7528,-74441
7529,-78281
7530,-80922
7531,-79464
7532,-76618
7533,-78180
7534,-76348
7535,-69721
7536,-68973
7537,-74556
7538,-80225
7539,-83790
7540,-81596
7541,-76319
7542,-74686
7543,-73064
7544,-73221
7545,-74800
7546,-76336
7547,-76759
7548,-75926
7549,-82157
7550,-83690
7551,-76868
7552,-73326
7553,-73604
7554,-73216
7555,-74361
7556,-71872
7557,-72175
7558,-76827
7559,-80982
7560,-85667
7561,-89703
7562,-84957
7563,-72814
7564,-66821
7565,-68429
7566,-71327
7567,-77359
7568,-79164
7569,-80294
7570,-78307
7571,-77227
7572,-76620
7573,-72901
7574,-70599
7575,-71771
7576,-79414
7577,-84346
7578,-79813
7579,-73281
7580,-74194
7581,-78369
7582,-75872
7583,-72739
7584,-71000
7585,-73329
7586,-79814
7587,-87239
7588,-88011
7589,-81927
7590,-75517
7591,-70699
7592,-72810
7593,-72537
7594,-71250
7595,-71388
7596,-72957
7597,-74847
7598,-76913
7599,-84416
7600,-88612
7601,-82561
7602,-72355
7603,-67833
7604,-69736
7605,-71369
7606,-74785
7607,-81507
7608,-87892
7609,-84188
7610,-80624
7611,-79211
7612,-78385
7613,-76105
7614,-69311
7615,-63469
7616,-65588
7617,-73512
7618,-78317
7619,-80864
7620,-80997
7621,-80509
7622,-79434
7623,-77011
7624,-73793
7625,-72279
7626,-71869
7627,-75714
7628,-77671
7629,-79833
7630,-80514
7631,-79139
7632,-78176
7633,-72542
7634,-69302
7635,-74386
7636,-79377
7637,-82087
7638,-81390
7639,-78562
7640,-80192
7641,-74932
7642,-72247
7643,-73722
7644,-73687
7645,-73431
7646,-75079
7647,-74698
7648,-77305
7649,-84344
7650,-85127
7651,-80232
7652,-75157
7653,-70964
7654,-68666
7655,-69015
7656,-74069
7657,-77951
7658,-78899
7659,-80004
7660,-80202
7661,-78291
7662,-74756
7663,-71666
7664,-72207
7665,-71991
7666,-74369
7667,-79187
7668,-81696
7669,-78702
7670,-79274
7671,-80576
7672,-74433
7673,-67727
7674,-64643
7675,-69083
7676,-72599
7677,-75372
7678,-78368
7679,-83578
7680,-88179
7681,-85566
7682,-74493
7683,-64885
7684,-65528
7685,-66646
7686,-67575
7687,-74172
7688,-83645
7689,-86154
7690,-83044
7691,-81945
7692,-76557
7693,-69452
7694,-70122
7695,-73475
7696,-74325
7697,-73452
7698,-76937
7699,-80817
7700,-82352
7701,-79534
7702,-74098
7703,-69914
7704,-67449
7705,-69709
7706,-73412
7707,-75001
7708,-76919
7709,-77213
7710,-79682
7711,-82229
7712,-78496
7713,-73461
7714,-69975
7715,-69577
7716,-72060
7717,-77159
7718,-80861
7719,-82086
7720,-80926
7721,-80658
7722,-80665
7723,-80402
7724,-74151
7725,-65176
7726,-67217
7727,-76086
7728,-86069
7729,-91143
7730,-81902
7731,-72733
7732,-74376
7733,-72633
7734,-70805
7735,-71463
7736,-72355
7737,-74401
7738,-77539
7739,-82211
7740,-82719
7741,-77705
7742,-76203
7743,-75247
7744,-73054
7745,-73142
7746,-76347
7747,-78158
7748,-76276
7749,-76338
7750,-79665
7751,-81107
7752,-78724
7753,-76602
7754,-76437
7755,-77294
7756,-73091
7757,-71539
7758,-76264
7759,-82399
7760,-80556
7761,-77196
7762,-76048
7763,-73642
7764,-71471
7765,-72365
7766,-74652
7767,-77476
7768,-76601
7769,-79816
7770,-80597
7771,-77704
7772,-76775
7773,-75807
7774,-74027
7775,-74159
7776,-78353
7777,-79897
7778,-80811
7779,-82415
7780,-79696
7781,-76685
7782,-75679
7783,-71737
7784,-69509
7785,-71611
7786,-74567
7787,-79154
7788,-81272
7789,-82026
7790,-84526
7791,-80164
7792,-76377
7793,-71605
7794,-70057
7795,-68736
7796,-72314
7797,-74857
7798,-77875
7799,-85808
7800,-88926
7801,-79102
7802,-69517
7803,-68764
7804,-69582
7805,-68427
7806,-69816
7807,-74284
7808,-79592
7809,-84696
7810,-83644
7811,-78383
7812,-75559
7813,-76504
7814,-73227
7815,-67649
7816,-68422
7817,-73360
7818,-76935
7819,-79497
7820,-80107
7821,-78431
7822,-74806
7823,-73331
7824,-70107
7825,-68769
7826,-71781
7827,-76169
7828,-80170
7829,-83401
7830,-84604
7831,-82339
7832,-78375
7833,-72267
7834,-67023
7835,-68599
7836,-71400
7837,-75157
7838,-79596
7839,-80417
7840,-80757
7841,-81217
7842,-81094
7843,-78507
7844,-67457
7845,-61337
7846,-68672
7847,-78355
7848,-79737
7849,-79387
7850,-80401
7851,-81349
7852,-78158
7853,-73402
7854,-70976
7855,-70913
7856,-72660
7857,-75644
7858,-80111
7859,-82667
7860,-80570
7861,-78126
7862,-76374
7863,-74556
7864,-71113
7865,-70821
7866,-75824
7867,-81345
7868,-80894
7869,-78000
7870,-76705
7871,-77962
7872,-76879
7873,-72291
7874,-74767
7875,-77648
7876,-71689
7877,-68647
7878,-73065
7879,-76828
7880,-78852
7881,-79471
7882,-76082
7883,-72496
7884,-72277
7885,-72497
7886,-69892
7887,-71289
7888,-77632
7889,-79517
7890,-79577
7891,-78394
7892,-75914
7893,-73882
7894,-73419
7895,-73741
7896,-74356
7897,-74216
7898,-76366
7899,-79783
7900,-81804
7901,-78744
7902,-75598
7903,-73776
7904,-72289
7905,-70824
7906,-70929
7907,-72801
7908,-79252
7909,-82621
7910,-82529
7911,-78760
7912,-73708
7913,-72385
7914,-69781
7915,-69769
7916,-72367
7917,-75627
7918,-78996
7919,-85451
7920,-90718
7921,-86422
7922,-74883
7923,-69701
7924,-66837
7925,-66963
7926,-73259
7927,-78060
7928,-79753
7929,-80586
7930,-80319
7931,-81357
7932,-80054
7933,-77739
7934,-72672
7935,-72325
7936,-72467
7937,-69108
7938,-73603
7939,-81076
7940,-82634
7941,-81863
7942,-79496
7943,-74377
7944,-67314
7945,-63544
7946,-69260
7947,-74926
7948,-76956
7949,-79756
7950,-79827
7951,-78400
7952,-73172
7953,-71586
7954,-71198
7955,-71172
7956,-75098
7957,-79077
7958,-81147
7959,-78212
7960,-74962
7961,-75777
7962,-73287
7963,-69761
7964,-67472
7965,-67722
7966,-70321
7967,-76191
7968,-81273
7969,-82689
7970,-78446
7971,-77509
7972,-74571
7973,-72143
7974,-71044
7975,-71155
7976,-72047
7977,-72506
7978,-71533
7979,-76560
7980,-84087
7981,-85864
7982,-79557
7983,-70301
7984,-65361
7985,-69287
7986,-73032
7987,-72370
7988,-75475
7989,-77557
7990,-79171
7991,-79119
7992,-77007
7993,-73850
7994,-71799
7995,-71892
7996,-74269
7997,-76496
7998,-78824
7999,-83747
8000,-82459
8001,-76055
8002,-73114
8003,-71888
8004,-72832
8005,-76585
8006,-77717
8007,-75484
8008,-74460
8009,-75537
8010,-76635
8011,-77887
8012,-77837
8013,-76273
8014,-73442
8015,-72543
8016,-72080
8017,-74341
8018,-76279
8019,-76153
8020,-76893
8021,-77261
8022,-75904
8023,-74252
8024,-72885
8025,-73771
8026,-75707
8027,-77721
8028,-77153
8029,-74793
8030,-76035
8031,-76790
8032,-74208
8033,-71256
8034,-69956
8035,-70688
8036,-73414
8037,-74672
8038,-74508
8039,-78564
8040,-78869
8041,-79095
8042,-76325
8043,-70723
8044,-65390
8045,-67694
8046,-73309
8047,-79114
8048,-82942
8049,-81046
8050,-76685
8051,-75357
8052,-72879
8053,-69789
8054,-68892
8055,-70268
8056,-71937
8057,-73979
8058,-76282
8059,-80071
8060,-81387
8061,-79085
8062,-74474
8063,-71369
8064,-72424
8065,-71791
8066,-71919
8067,-74899
8068,-80914
8069,-86691
8070,-84942
8071,-79447
8072,-76059
8073,-71277
8074,-67112
8075,-70027
8076,-73874
8077,-76342
8078,-81051
8079,-80290
8080,-76444
8081,-78396
8082,-76659
8083,-74452
8084,-72581
8085,-72891
8086,-71179
8087,-73125
8088,-76602
8089,-80074
8090,-81923
8091,-81616
8092,-77619
8093,-74611
8094,-72442
8095,-70809
8096,-71519
8097,-75472
8098,-76071
8099,-79169
8100,-81546
8101,-80662
8102,-79498
8103,-79079
8104,-78505
8105,-71744
8106,-64256
8107,-68300
8108,-73527
8109,-78900
8110,-82421
8111,-81302
8112,-76390
8113,-72614
8114,-71636
8115,-72000
8116,-72134
8117,-74263
8118,-77163
8119,-79365
8120,-80069
8121,-78926
8122,-75777
8123,-71818
8124,-68427
8125,-68186
8126,-70096
8127,-73439
8128,-76985
8129,-80226
8130,-83013
8131,-82919
8132,-77527
8133,-69914
8134,-67976
8135,-70056
8136,-72842
8137,-73977
8138,-77146
8139,-80720
8140,-81051
8141,-79114
8142,-75926
8143,-72371
8144,-70699
8145,-70216
8146,-69941
8147,-72230
8148,-76562
8149,-79544
8150,-79003
8151,-76177
8152,-73334
8153,-71542
8154,-70394
8155,-71504
8156,-72173
8157,-74391
8158,-78572
8159,-81079
8160,-80541
8161,-81616
8162,-78632
8163,-71087
8164,-69949
8165,-69461
8166,-71452
8167,-75245
8168,-77964
8169,-79399
8170,-81061
8171,-80329
8172,-76018
8173,-70750
8174,-67778
8175,-67873
8176,-72182
8177,-79285
8178,-81483
8179,-83550
8180,-83247
8181,-76706
8182,-71416
8183,-73060
8184,-72976
8185,-68896
8186,-70952
8187,-76180
8188,-80729
8189,-84959
8190,-85537
8191,-81507
8192,-74989
8193,-72895
8194,-71141
8195,-70732
8196,-72619
8197,-75954
8198,-78594
8199,-81184
8200,-82133
8201,-81011
8202,-78842
8203,-75159
8204,-71443
8205,-70957
8206,-73412
8207,-76202
8208,-78981
8209,-79943
8210,-81356
8211,-79569
8212,-75726
8213,-76039
8214,-73206
8215,-71075
8216,-71377
8217,-74784
8218,-80044
8219,-83663
8220,-83788
8221,-82231
8222,-76994
8223,-72388
8224,-71638
8225,-73514
8226,-75797
8227,-78289
8228,-80889
8229,-82959
8230,-83069
8231,-81289
8232,-80581
8233,-77386
8234,-74446
8235,-76004
8236,-78834
8237,-83844
8238,-86146
8239,-83619
8240,-83892
8241,-83912
8242,-80759
8243,-75429
8244,-70670
8245,-70360
8246,-74426
8247,-78671
8248,-82093
8249,-82374
8250,-79916
8251,-77651
8252,-74313
8253,-72294
8254,-68831
8255,-68932
8256,-70717
8257,-72924
8258,-75999
8259,-78755
8260,-78456
8261,-76510
8262,-73580
8263,-70332
8264,-68133
8265,-68052
8266,-68867
8267,-71242
8268,-73847
8269,-76386
8270,-76971
8271,-74817
8272,-70324
8273,-67239
8274,-66035
8275,-64982
8276,-65357
8277,-68151
8278,-71103
8279,-72826
8280,-72591
8281,-69808
8282,-65815
8283,-62642
8284,-59268
8285,-59424
8286,-63427
8287,-67728
8288,-69818
8289,-67539
8290,-65387
8291,-64581
8292,-61404
8293,-58466
8294,-57136
8295,-59083
8296,-61719
8297,-63637
8298,-64878
8299,-65919
8300,-67257
8301,-66293
8302,-63025
8303,-60434
8304,-59157
8305,-59275
8306,-61313
8307,-65443
8308,-66839
8309,-65600
8310,-65726
8311,-67169
8312,-65681
8313,-62617
8314,-60327
8315,-59786
8316,-61082
8317,-63666
8318,-66389
8319,-68277
8320,-68402
8321,-67127
8322,-64447
8323,-61957
8324,-58918
8325,-57349
8326,-59500
8327,-63189
8328,-64326
8329,-64068
8330,-63031
8331,-60822
8332,-57754
8333,-54431
8334,-50994
8335,-50303
8336,-52264
8337,-54095
8338,-55525
8339,-56524
8340,-55117
8341,-52886
8342,-47834
8343,-42788
8344,-40772
8345,-41147
8346,-44537
8347,-46861
8348,-48146
8349,-49266
8350,-51382
8351,-51848
8352,-51214
8353,-49088
8354,-48304
8355,-49065
8356,-50117
8357,-54186
8358,-59629
8359,-61332
8360,-61646
8361,-60945
8362,-59300
8363,-56959
8364,-56442
8365,-56549
8366,-57563
8367,-62695
8368,-68371
8369,-70600
8370,-70812
8371,-69676
8372,-67176
8373,-64776
8374,-63072
8375,-62994
8376,-64208
8377,-66730
8378,-69228
8379,-70757
8380,-70539
8381,-69311
8382,-66798
8383,-64279
8384,-62942
8385,-63072
8386,-63912
8387,-65442
8388,-70053
8389,-75421
8390,-76205
8391,-74160
8392,-70167
8393,-66255
8394,-63844
8395,-64459
8396,-66281
8397,-69101
8398,-71626
8399,-74165
8400,-73918
8401,-72429
8402,-70350
8403,-69019
8404,-67064
8405,-66853
8406,-68842
8407,-70869
8408,-73676
8409,-76353
8410,-76311
8411,-75492
8412,-73157
8413,-70331
8414,-68422
8415,-68116
8416,-69386
8417,-72467
8418,-74770
8419,-75622
8420,-75147
8421,-74159
8422,-71902
8423,-68264
8424,-66232
8425,-66055
8426,-67963
8427,-70707
8428,-73401
8429,-74516
8430,-73737
8431,-72010
8432,-69136
8433,-66722
8434,-65041
8435,-64404
8436,-64751
8437,-68232
8438,-72439
8439,-73392
8440,-71929
8441,-68628
8442,-66792
8443,-67214
8444,-64511
8445,-64407
8446,-65506
8447,-67747
8448,-70284
8449,-71789
8450,-71291
8451,-69149
8452,-66859
8453,-63290
8454,-60582
8455,-61373
8456,-63620
8457,-66271
8458,-68428
8459,-69936
8460,-70421
8461,-69429
8462,-65513
8463,-62277
8464,-60431
8465,-60869
8466,-63394
8467,-66222
8468,-69128
8469,-70586
8470,-69711
8471,-68273
8472,-65775
8473,-63091
8474,-61328
8475,-61499
8476,-62907
8477,-65534
8478,-68670
8479,-70257
8480,-69546
8481,-67697
8482,-64827
8483,-62003
8484,-60408
8485,-60557
8486,-61964
8487,-64632
8488,-67437
8489,-68982
8490,-68362
8491,-66254
8492,-63196
8493,-60806
8494,-59457
8495,-59599
8496,-60964
8497,-64357
8498,-66961
8499,-68812
8500,-68466
8501,-66609
8502,-63577
8503,-60822
8504,-59295
8505,-59409
8506,-60946
8507,-64524
8508,-67994
8509,-70104
8510,-69682
8511,-67852
8512,-64737
8513,-61804
8514,-60189
8515,-60297
8516,-62071
8517,-65129
8518,-67879
8519,-69403
8520,-69076
8521,-66961
8522,-63734
8523,-61242
8524,-59659
8525,-59939
8526,-61615
8527,-64434
8528,-67477
8529,-69330
8530,-68979
8531,-66822
8532,-63761
8533,-61007
8534,-59554
8535,-60287
8536,-62110
8537,-65008
8538,-67447
8539,-68562
8540,-67601
8541,-65648
8542,-63502
8543,-61624
8544,-59260
8545,-59322
8546,-61243
8547,-64222
8548,-67116
8549,-68677
8550,-68347
8551,-66537
8552,-63556
8553,-60867
8554,-59480
8555,-59822
8556,-61774
8557,-64502
8558,-66826
8559,-68291
8560,-67474
8561,-65746
8562,-63241
8563,-60445
8564,-58372
8565,-58186
8566,-60587
8567,-62699
8568,-65474
8569,-67462
8570,-67167
8571,-65207
8572,-62297
8573,-59524
8574,-57769
8575,-58047
8576,-59517
8577,-62665
8578,-65895
8579,-67580
8580,-67258
8581,-65407
8582,-62452
8583,-59842
8584,-58424
8585,-58892
8586,-60737
8587,-63787
8588,-66631
8589,-68175
8590,-67847
8591,-66176
8592,-62711
8593,-59596
8594,-58947
8595,-59539
8596,-60714
8597,-63964
8598,-66983
8599,-68571
8600,-68170
8601,-66485
8602,-63315
8603,-59916
8604,-58004
8605,-58457
8606,-60391
8607,-63535
8608,-66439
8609,-68107
8610,-67590
8611,-65185
8612,-62191
8613,-59944
8614,-58414
8615,-58359
8616,-59948
8617,-63172
8618,-66210
8619,-67769
8620,-67164
8621,-65304
8622,-62266
8623,-59884
8624,-58375
8625,-58354
8626,-59946
8627,-63293
8628,-66298
8629,-67752
8630,-67405
8631,-65714
8632,-62736
8633,-59917
8634,-58409
8635,-59104
8636,-60956
8637,-63767
8638,-66840
8639,-68991
8640,-68822
8641,-66861
8642,-63661
8643,-61094
8644,-59851
8645,-60221
8646,-61867
8647,-64744
8648,-67473
8649,-69205
8650,-69594
8651,-68346
8652,-64797
8653,-62067
8654,-61287
8655,-61226
8656,-62707
8657,-65711
8658,-68637
8659,-70217
8660,-69685
8661,-67672
8662,-64651
8663,-62226
8664,-60754
8665,-60928
8666,-62771
8667,-65790
8668,-68434
8669,-69908
8670,-69674
8671,-67451
8672,-63924
8673,-61224
8674,-59409
8675,-59615
8676,-61328
8677,-64123
8678,-66996
8679,-68503
8680,-68326
8681,-66127
8682,-62844
8683,-59917
8684,-58384
8685,-58756
8686,-60552
8687,-63573
8688,-66367
8689,-67821
8690,-67214
8691,-64789
8692,-61677
8693,-59369
8694,-58741
8695,-58792
8696,-59872
8697,-62841
8698,-65800
8699,-67367
8700,-66847
8701,-64824
8702,-61627
8703,-58510
8704,-56578
8705,-57036
8706,-59517
8707,-61850
8708,-65560
8709,-67444
8710,-66606
8711,-64668
8712,-61566
8713,-58585
8714,-56930
8715,-57286
8716,-59060
8717,-62048
8718,-64881
8719,-66426
8720,-65981
8721,-64142
8722,-61059
8723,-58154
8724,-56540
8725,-56847
8726,-58680
8727,-61502
8728,-64251
8729,-65826
8730,-65467
8731,-64102
8732,-60450
8733,-57560
8734,-56161
8735,-56521
8736,-58110
8737,-61223
8738,-64077
8739,-65537
8740,-64269
8741,-62771
8742,-60869
8743,-58157
8744,-55980
8745,-56213
8746,-58057
8747,-61233
8748,-64191
8749,-65501
8750,-64770
8751,-62997
8752,-59807
8753,-56596
8754,-55642
8755,-56476
8756,-57992
8757,-60969
8758,-64007
8759,-65634
8760,-65145
8761,-63350
8762,-60427
8763,-57604
8764,-55961
8765,-56411
8766,-58267
8767,-61406
8768,-64369
8769,-65875
8770,-65646
8771,-64092
8772,-60879
8773,-57942
8774,-56511
8775,-56977
8776,-58886
8777,-61977
8778,-64916
8779,-66582
8780,-66199
8781,-64383
8782,-61304
8783,-58499
8784,-56802
8785,-56971
8786,-58954
8787,-62512
8788,-65419
8789,-66822
8790,-66376
8791,-64632
8792,-61470
8793,-58611
8794,-56759
8795,-57042
8796,-59506
8797,-63066
8798,-65496
8799,-66967
8800,-66499
8801,-64682
8802,-61714
8803,-58757
8804,-57249
8805,-57531
8806,-59239
8807,-62371
8808,-65264
8809,-66767
8810,-66371
8811,-64532
8812,-61411
8813,-58489
8814,-56880
8815,-57308
8816,-59080
8817,-62094
8818,-65023
8819,-66760
8820,-66531
8821,-64649
8822,-61476
8823,-58211
8824,-56269
8825,-56601
8826,-58817
8827,-62045
8828,-64864
8829,-66541
8830,-66240
8831,-64441
8832,-61164
8833,-58237
8834,-56871
8835,-57142
8836,-58914
8837,-61858
8838,-64116
8839,-65980
8840,-66539
8841,-64313
8842,-61410
8843,-58436
8844,-56966
8845,-57496
8846,-59131
8847,-62207
8848,-65049
8849,-66564
8850,-66186
8851,-64350
8852,-61026
8853,-58003
8854,-56522
8855,-57216
8856,-59135
8857,-61974
8858,-64831
8859,-66432
8860,-66084
8861,-64111
8862,-60916
8863,-58152
8864,-56527
8865,-56782
8866,-58479
8867,-61601
8868,-64487
8869,-66184
8870,-65716
8871,-63716
8872,-60447
8873,-57789
8874,-56325
8875,-56642
8876,-58382
8877,-61409
8878,-64234
8879,-65792
8880,-65387
8881,-63498
8882,-60461
8883,-57641
8884,-56090
8885,-56485
8886,-58283
8887,-61372
8888,-64250
8889,-65813
8890,-65528
8891,-63761
8892,-60786
8893,-57942
8894,-56327
8895,-56734
8896,-58347
8897,-61244
8898,-64032
8899,-65754
8900,-65561
8901,-63849
8902,-60647
8903,-57944
8904,-56715
8905,-56841
8906,-58207
8907,-61399
8908,-64011
8909,-65754
8910,-65944
8911,-64008
8912,-60717
8913,-57881
8914,-56357
8915,-56604
8916,-58426
8917,-61414
8918,-64184
8919,-65749
8920,-65613
8921,-63925
8922,-60342
8923,-57501
8924,-55961
8925,-56192
8926,-58125
8927,-61071
8928,-63791
8929,-65678
8930,-65261
8931,-63324
8932,-60152
8933,-57070
8934,-55446
8935,-55821
8936,-57871
8937,-61025
8938,-63984
8939,-65441
8940,-64761
8941,-62883
8942,-59801
8943,-56793
8944,-55301
8945,-55511
8946,-57579
8947,-60792
8948,-63559
8949,-65072
8950,-64619
8951,-62642
8952,-59252
8953,-56414
8954,-55371
8955,-55994
8956,-57896
8957,-60811
8958,-63420
8959,-65169
8960,-64766
8961,-62915
8962,-59781
8963,-56862
8964,-55251
8965,-55625
8966,-57499
8967,-60525
8968,-63291
8969,-65236
8970,-64871
8971,-63112
8972,-59902
8973,-56944
8974,-55260
8975,-55571
8976,-57382
8977,-60663
8978,-63461
8979,-65033
8980,-64524
8981,-62741
8982,-59690
8983,-56874
8984,-55201
8985,-55678
8986,-57567
8987,-60410
8988,-63425
8989,-64987
8990,-64657
8991,-62785
8992,-59881
8993,-57027
8994,-55274
8995,-55489
8996,-57791
8997,-60862
8998,-63646
8999,-65193
9000,-64641
9001,-63121
9002,-60254
9003,-57413
9004,-55651
9005,-56055
9006,-57797
9007,-60909
9008,-63721
9009,-65082
9010,-64828
9011,-63237
9012,-60411
9013,-57496
9014,-55861
9015,-56599
9016,-58286
9017,-61066
9018,-64049
9019,-65656
9020,-65352
9021,-63527
9022,-60344
9023,-57457
9024,-55869
9025,-56186
9026,-58026
9027,-61222
9028,-64266
9029,-65894
9030,-65419
9031,-63678
9032,-60123
9033,-57288
9034,-56182
9035,-56571
9036,-58290
9037,-61309
9038,-64131
9039,-65671
9040,-65450
9041,-63586
9042,-60284
9043,-57139
9044,-55946
9045,-56343
9046,-58025
9047,-61225
9048,-64229
9049,-65758
9050,-65110
9051,-63202
9052,-60063
9053,-57455
9054,-55764
9055,-55748
9056,-57520
9057,-60712
9058,-63872
9059,-65901
9060,-65379
9061,-63357
9062,-60359
9063,-57452
9064,-55617
9065,-55558
9066,-57801
9067,-61700
9068,-64771
9069,-65549
9070,-64713
9071,-63055
9072,-60001
9073,-56937
9074,-55399
9075,-56082
9076,-57697
9077,-60732
9078,-63786
9079,-65340
9080,-64772
9081,-62546
9082,-59559
9083,-56951
9084,-55484
9085,-55841
9086,-57556
9087,-60748
9088,-63661
9089,-65199
9090,-64836
9091,-62931
9092,-59752
9093,-56847
9094,-55236
9095,-55522
9096,-57337
9097,-60403
9098,-63164
9099,-64746
9100,-64441
9101,-62653
9102,-59552
9103,-56684
9104,-55339
9105,-55604
9106,-57237
9107,-60389
9108,-63082
9109,-64674
9110,-64664
9111,-62597
9112,-58986
9113,-56305
9114,-55233
9115,-55609
9116,-57587
9117,-60454
9118,-63061
9119,-64777
9120,-64607
9121,-62592
9122,-59194
9123,-56206
9124,-54729
9125,-56040
9126,-57991
9127,-60378
9128,-63088
9129,-64809
9130,-64690
9131,-62937
9132,-59742
9133,-56792
9134,-55171
9135,-55726
9136,-57473
9137,-60742
9138,-63686
9139,-65147
9140,-64666
9141,-62792
9142,-59734
9143,-56842
9144,-55179
9145,-55421
9146,-57286
9147,-60470
9148,-63563
9149,-65074
9150,-64092
9151,-62338
9152,-60120
9153,-57186
9154,-55347
9155,-55649
9156,-57597
9157,-60811
9158,-63694
9159,-65168
9160,-65041
9161,-63026
9162,-59286
9163,-56756
9164,-55372
9165,-55702
9166,-57567
9167,-60662
9168,-63552
9169,-65037
9170,-64845
9171,-63095
9172,-59713
9173,-56598
9174,-55208
9175,-55716
9176,-57449
9177,-60507
9178,-63684
9179,-65156
9180,-64619
9181,-62946
9182,-59931
9183,-56919
9184,-55397
9185,-55651
9186,-57544
9187,-60692
9188,-63696
9189,-65206
9190,-64590
9191,-62874
9192,-59802
9193,-56857
9194,-55366
9195,-55713
9196,-57550
9197,-60431
9198,-63357
9199,-65172
9200,-64604
9201,-62887
9202,-59536
9203,-56485
9204,-54741
9205,-55054
9206,-57136
9207,-60671
9208,-63916
9209,-65236
9210,-64716
9211,-62995
9212,-59531
9213,-56629
9214,-54880
9215,-55034
9216,-57744
9217,-60977
9218,-63348
9219,-64822
9220,-64577
9221,-62760
9222,-59400
9223,-56344
9224,-55009
9225,-55469
9226,-57258
9227,-60404
9228,-63281
9229,-64831
9230,-64404
9231,-62564
9232,-59463
9233,-56559
9234,-54991
9235,-55404
9236,-57230
9237,-60339
9238,-63162
9239,-64779
9240,-64631
9241,-62537
9242,-59409
9243,-56511
9244,-54801
9245,-54989
9246,-56974
9247,-60114
9248,-62942
9249,-64796
9250,-64366
9251,-62452
9252,-59168
9253,-56372
9254,-55006
9255,-55372
9256,-57109
9257,-60161
9258,-63032
9259,-64456
9260,-64081
9261,-62255
9262,-59132
9263,-56122
9264,-55046
9265,-55399
9266,-57027
9267,-59892
9268,-62939
9269,-64969
9270,-64209
9271,-62261
9272,-59082
9273,-56141
9274,-54607
9275,-55010
9276,-56796
9277,-60001
9278,-62876
9279,-64351
9280,-63900
9281,-62009
9282,-58785
9283,-55776
9284,-54386
9285,-54977
9286,-56662
9287,-59799
9288,-62979
9289,-64364
9290,-63901
9291,-61877
9292,-58443
9293,-55868
9294,-54390
9295,-54564
9296,-56511
9297,-59766
9298,-62738
9299,-64172
9300,-63545
9301,-61848
9302,-58911
9303,-56051
9304,-54450
9305,-54778
9306,-56629
9307,-59771
9308,-62648
9309,-64330
9310,-63740
9311,-61880
9312,-58814
9313,-55792
9314,-54213
9315,-54817
9316,-56598
9317,-59589
9318,-62612
9319,-64367
9320,-63822
9321,-61815
9322,-58721
9323,-55809
9324,-54300
9325,-54687
9326,-56496
9327,-59712
9328,-62869
9329,-64324
9330,-63880
9331,-61907
9332,-58536
9333,-55584
9334,-54224
9335,-54500
9336,-56309
9337,-59696
9338,-62503
9339,-64075
9340,-63996
9341,-62012
9342,-58792
9343,-55942
9344,-54349
9345,-54599
9346,-56532
9347,-59946
9348,-62959
9349,-64461
9350,-63788
9351,-62317
9352,-59254
9353,-55982
9354,-54294
9355,-54826
9356,-56953
9357,-60201
9358,-62963
9359,-64484
9360,-63975
9361,-62007
9362,-58631
9363,-55879
9364,-54300
9365,-54939
9366,-57325
9367,-60299
9368,-63152
9369,-64631
9370,-64000
9371,-62307
9372,-59260
9373,-56238
9374,-54651
9375,-55069
9376,-56948
9377,-60099
9378,-62851
9379,-64460
9380,-64197
9381,-62284
9382,-58822
9383,-55932
9384,-54246
9385,-55100
9386,-57015
9387,-60016
9388,-63039
9389,-64717
9390,-64338
9391,-62364
9392,-59092
9393,-56172
9394,-54621
9395,-55019
9396,-56836
9397,-59876
9398,-62378
9399,-64211
9400,-64327
9401,-62588
9402,-59216
9403,-56141
9404,-54647
9405,-55255
9406,-57254
9407,-59989
9408,-62874
9409,-64494
9410,-64016
9411,-61947
9412,-58971
9413,-56277
9414,-54634
9415,-55003
9416,-57057
9417,-60070
9418,-62829
9419,-64306
9420,-63826
9421,-62030
9422,-58914
9423,-55986
9424,-54337
9425,-54897
9426,-56514
9427,-59818
9428,-62767
9429,-64289
9430,-63863
9431,-61856
9432,-58622
9433,-55690
9434,-54307
9435,-54753
9436,-56484
9437,-59571
9438,-62456
9439,-64017
9440,-63874
9441,-62001
9442,-58688
9443,-55590
9444,-54018
9445,-54439
9446,-56407
9447,-59472
9448,-62420
9449,-63909
9450,-63206
9451,-61204
9452,-58065
9453,-55259
9454,-54209
9455,-54604
9456,-56305
9457,-59267
9458,-62169
9459,-63757
9460,-63477
9461,-61762
9462,-58517
9463,-55340
9464,-53692
9465,-54263
9466,-56017
9467,-59251
9468,-62641
9469,-64136
9470,-63490
9471,-61601
9472,-58379
9473,-55464
9474,-53764
9475,-54282
9476,-56535
9477,-59554
9478,-62479
9479,-64046
9480,-63477
9481,-61609
9482,-58427
9483,-55334
9484,-53524
9485,-54053
9486,-56210
9487,-59540
9488,-62492
9489,-64002
9490,-63638
9491,-61666
9492,-58462
9493,-55491
9494,-53868
9495,-54400
9496,-56355
9497,-59577
9498,-62461
9499,-63987
9500,-63575
9501,-61692
9502,-58482
9503,-55536
9504,-53971
9505,-54412
9506,-56313
9507,-59599
9508,-62446
9509,-63385
9510,-62522
9511,-61469
9512,-59225
9513,-55750
9514,-53959
9515,-54595
9516,-56445
9517,-59511
9518,-62501
9519,-64061
9520,-63593
9521,-61661
9522,-58400
9523,-55357
9524,-53819
9525,-54494
9526,-56512
9527,-59482
9528,-62088
9529,-63767
9530,-63351
9531,-61362
9532,-58215
9533,-55268
9534,-53927
9535,-54188
9536,-55902
9537,-59246
9538,-62632
9539,-64121
9540,-63461
9541,-61515
9542,-58381
9543,-55452
9544,-53837
9545,-54109
9546,-56140
9547,-59457
9548,-62393
9549,-63970
9550,-63498
9551,-61526
9552,-58201
9553,-55204
9554,-53876
9555,-54296
9556,-56216
9557,-59418
9558,-62301
9559,-63930
9560,-63372
9561,-61325
9562,-58037
9563,-55278
9564,-53907
9565,-54061
9566,-55941
9567,-59538
9568,-62547
9569,-63856
9570,-63379
9571,-61522
9572,-58240
9573,-55266
9574,-53614
9575,-54054
9576,-56022
9577,-59374
9578,-62412
9579,-63864
9580,-63390
9581,-61368
9582,-58064
9583,-55259
9584,-53682
9585,-54117
9586,-56357
9587,-59530
9588,-62249
9589,-63882
9590,-63547
9591,-61563
9592,-58101
9593,-55026
9594,-53344
9595,-54314
9596,-56285
9597,-59254
9598,-62530
9599,-64098
9600,-63601
9601,-61457
9602,-57905
9603,-55387
9604,-53946
9605,-54761
9606,-56708
9607,-59671
9608,-62501
9609,-63978
9610,-63552
9611,-61546
9612,-58350
9613,-55608
9614,-53922
9615,-53909
9616,-55697
9617,-59429
9618,-62354
9619,-63770
9620,-63259
9621,-61414
9622,-58230
9623,-55067
9624,-53586
9625,-54269
9626,-56076
9627,-59200
9628,-62173
9629,-63766
9630,-63241
9631,-61262
9632,-57983
9633,-55015
9634,-53370
9635,-53752
9636,-55574
9637,-58828
9638,-62179
9639,-63692
9640,-63079
9641,-61121
9642,-57828
9643,-54838
9644,-53224
9645,-53652
9646,-55692
9647,-58919
9648,-61675
9649,-62754
9650,-62494
9651,-61477
9652,-58348
9653,-55053
9654,-53162
9655,-53711
9656,-55820
9657,-58919
9658,-61878
9659,-63372
9660,-62879
9661,-60955
9662,-57807
9663,-54802
9664,-53239
9665,-53794
9666,-55669
9667,-58982
9668,-62067
9669,-63474
9670,-63082
9671,-61054
9672,-57547
9673,-54569
9674,-53011
9675,-53769
9676,-55949
9677,-59126
9678,-62149
9679,-63583
9680,-63029
9681,-60915
9682,-57872
9683,-54900
9684,-53650
9685,-53966
9686,-55739
9687,-59120
9688,-62094
9689,-63657
9690,-63070
9691,-60988
9692,-57746
9693,-54839
9694,-53271
9695,-54056
9696,-55990
9697,-59165
9698,-62196
9699,-63695
9700,-63274
9701,-61351
9702,-58122
9703,-55334
9704,-53727
9705,-54074
9706,-56066
9707,-59370
9708,-62309
9709,-63892
9710,-63328
9711,-61293
9712,-58077
9713,-55201
9714,-53605
9715,-54115
9716,-56172
9717,-59444
9718,-62159
9719,-63639
9720,-63492
9721,-61637
9722,-58296
9723,-55312
9724,-53735
9725,-54274
9726,-56225
9727,-59599
9728,-62497
9729,-64020
9730,-63491
9731,-61484
9732,-58290
9733,-55299
9734,-53427
9735,-53935
9736,-56066
9737,-59164
9738,-62266
9739,-64246
9740,-63715
9741,-61641
9742,-58216
9743,-55137
9744,-53530
9745,-54059
9746,-56091
9747,-59296
9748,-62158
9749,-63707
9750,-63117
9751,-61103
9752,-57819
9753,-54523
9754,-52828
9755,-53337
9756,-55776
9757,-58934
9758,-61837
9759,-63436
9760,-62930
9761,-60767
9762,-57468
9763,-54531
9764,-53219
9765,-53749
9766,-55521
9767,-58576
9768,-61651
9769,-63259
9770,-62666
9771,-60599
9772,-57241
9773,-54317
9774,-52573
9775,-52955
9776,-54977
9777,-58289
9778,-61366
9779,-62926
9780,-62364
9781,-60347
9782,-57158
9783,-53976
9784,-52273
9785,-52844
9786,-54789
9787,-58145
9788,-61016
9789,-62526
9790,-61944
9791,-60116
9792,-56828
9793,-53881
9794,-52275
9795,-52592
9796,-54675
9797,-58183
9798,-61114
9799,-62647
9800,-62017
9801,-59751
9802,-56671
9803,-53782
9804,-52078
9805,-52569
9806,-54524
9807,-57872
9808,-60941
9809,-62601
9810,-62012
9811,-59984
9812,-56666
9813,-53685
9814,-52186
9815,-52661
9816,-54689
9817,-57978
9818,-60900
9819,-62479
9820,-62062
9821,-59959
9822,-56694
9823,-53681
9824,-52135
9825,-52447
9826,-54627
9827,-58078
9828,-61004
9829,-62546
9830,-61944
9831,-59787
9832,-56779
9833,-54416
9834,-52758
9835,-52925
9836,-54756
9837,-58365
9838,-61433
9839,-62917
9840,-62621
9841,-60654
9842,-57164
9843,-54006
9844,-52791
9845,-53317
9846,-55319
9847,-58666
9848,-61617
9849,-63149
9850,-62740
9851,-60856
9852,-57402
9853,-54484
9854,-52826
9855,-53212
9856,-55476
9857,-59160
9858,-62091
9859,-63502
9860,-63030
9861,-60900
9862,-57545
9863,-54627
9864,-53142
9865,-53632
9866,-55619
9867,-58861
9868,-61706
9869,-63331
9870,-62807
9871,-60727
9872,-57426
9873,-54412
9874,-52658
9875,-52993
9876,-55267
9877,-58774
9878,-61595
9879,-63096
9880,-62795
9881,-60842
9882,-57343
9883,-54302
9884,-52685
9885,-53271
9886,-55252
9887,-58645
9888,-61712
9889,-63049
9890,-62451
9891,-60288
9892,-56990
9893,-53885
9894,-52957
9895,-53606
9896,-55509
9897,-58899
9898,-61806
9899,-63385
9900,-62820
9901,-60766
9902,-57379
9903,-54444
9904,-52979
9905,-53525
9906,-55387
9907,-58708
9908,-61811
9909,-63212
9910,-62506
9911,-60604
9912,-57378
9913,-54435
9914,-52714
9915,-53321
9916,-55506
9917,-58641
9918,-61516
9919,-63066
9920,-62621
9921,-60621
9922,-57302
9923,-54302
9924,-52706
9925,-53131
9926,-55087
9927,-58362
9928,-61331
9929,-62588
9930,-62143
9931,-60374
9932,-57296
9933,-54255
9934,-52447
9935,-52914
9936,-54977
9937,-58410
9938,-61224
9939,-62790
9940,-62369
9941,-60299
9942,-56834
9943,-53710
9944,-52059
9945,-52841
9946,-55139
9947,-58113
9948,-61516
9949,-63383
9950,-62669
9951,-60424
9952,-57196
9953,-54535
9954,-52936
9955,-53547
9956,-55509
9957,-58737
9958,-61692
9959,-63230
9960,-62864
9961,-60974
9962,-57450
9963,-54342
9964,-53115
9965,-53590
9966,-55496
9967,-58785
9968,-62094
9969,-63721
9970,-62942
9971,-60867
9972,-57532
9973,-54797
9974,-53113
9975,-53626
9976,-55937
9977,-59201
9978,-61937
9979,-63396
9980,-62882
9981,-60917
9982,-57649
9983,-54704
9984,-53181
9985,-53517
9986,-55510
9987,-58857
9988,-61776
9989,-63146
9990,-62680
9991,-60589
9992,-57511
9993,-54547
9994,-52786
9995,-53237
9996,-55245
9997,-58549
9998,-61562
9999,-63078
10000,-62382
10001,-60226
10002,-56844
10003,-54003
10004,-52482
10005,-52889
10006,-55024
10007,-58212
10008,-61417
10009,-63229
10010,-62384
10011,-60299
10012,-57045
10013,-53998
10014,-52469
10015,-52958
10016,-54975
10017,-58221
10018,-61154
10019,-62615
10020,-61937
10021,-59981
10022,-56796
10023,-54096
10024,-52404
10025,-52724
10026,-54621
10027,-57711
10028,-60671
10029,-62696
10030,-62337
10031,-60079
10032,-56630
10033,-53523
10034,-52028
10035,-52477
10036,-54409
10037,-57771
10038,-60732
10039,-62287
10040,-61924
10041,-59864
10042,-56292
10043,-53100
10044,-51559
10045,-52191
10046,-54280
10047,-57457
10048,-60426
10049,-62069
10050,-61577
10051,-59471
10052,-55987
10053,-53206
10054,-51676
10055,-52094
10056,-54074
10057,-57411
10058,-60288
10059,-61727
10060,-61127
10061,-59305
10062,-56143
10063,-53014
10064,-51439
10065,-52172
10066,-54414
10067,-57441
10068,-60331
10069,-62037
10070,-61612
10071,-59320
10072,-55980
10073,-52947
10074,-51415
10075,-52337
10076,-54363
10077,-57560
10078,-60634
10079,-62142
10080,-61567
10081,-59559
10082,-56399
10083,-53322
10084,-51726
10085,-52267
